# Time_Sec,Amplitude
0.000000,-0.000139
0.033333,-0.001230
0.066667,-0.002147
0.100000,-0.002780
0.133333,-0.003102
0.166667,-0.003142
0.200000,-0.002937
0.233333,-0.002496
0.266667,-0.001799
0.300000,-0.000837
0.333333,0.000337
0.366667,0.001578
0.400000,0.002667
0.433333,0.003389
0.466667,0.003610
0.500000,0.003324
0.533333,0.002641
0.566667,0.001742
0.600000,0.000829
0.633333,0.000089
0.666667,-0.000345
0.700000,-0.000443
0.733333,-0.000303
0.766667,-0.000134
0.800000,-0.000172
0.833333,-0.000581
0.866667,-0.001362
0.900000,-0.002343
0.933333,-0.003229
0.966667,-0.003712
1.000000,-0.003578
1.033333,-0.002777
1.066667,-0.001436
1.100000,0.000190
1.133333,0.001780
1.166667,0.003026
1.200000,0.003699
1.233333,0.003695
1.266667,0.003057
1.300000,0.001961
1.333333,0.000665
1.366667,-0.000566
1.400000,-0.001524
1.433333,-0.002096
1.466667,-0.002259
1.500000,-0.002054
1.533333,-0.001554
1.566667,-0.000836
1.600000,0.000005
1.633333,0.000841
1.666667,0.001497
1.700000,0.001783
1.733333,0.001556
1.766667,0.000806
1.800000,-0.000304
1.833333,-0.001458
1.866667,-0.002264
1.900000,-0.002372
1.933333,-0.001613
1.966667,-0.000098
2.000000,0.001772
2.033333,0.003420
2.066667,0.004297
2.100000,0.004081
2.133333,0.002796
2.166667,0.000807
2.200000,-0.001313
2.233333,-0.002976
2.266667,-0.003761
2.300000,-0.003523
2.333333,-0.002412
2.366667,-0.000821
2.400000,0.000744
2.433333,0.001829
2.466667,0.002176
2.500000,0.001778
2.533333,0.000835
2.566667,-0.000356
2.600000,-0.001494
2.633333,-0.002324
2.666667,-0.002662
2.700000,-0.002404
2.733333,-0.001550
2.766667,-0.000223
2.800000,0.001325
2.833333,0.002748
2.866667,0.003661
2.900000,0.003739
2.933333,0.002821
2.966667,0.001009
3.000000,-0.001306
3.033333,-0.003519
3.066667,-0.004980
3.100000,-0.005208
3.133333,-0.004071
3.166667,-0.001837
3.200000,0.000899
3.233333,0.003408
3.266667,0.005045
3.300000,0.005429
3.333333,0.004543
3.366667,0.002719
3.400000,0.000521
3.433333,-0.001444
3.466667,-0.002692
3.500000,-0.002986
3.533333,-0.002352
3.566667,-0.001051
3.600000,0.000508
3.633333,0.001878
3.666667,0.002684
3.700000,0.002700
3.733333,0.001882
3.766667,0.000378
3.800000,-0.001516
3.833333,-0.003407
3.866667,-0.004889
3.900000,-0.005605
3.933333,-0.005329
3.966667,-0.004033
4.000000,-0.001922
4.033333,0.000586
4.066667,0.002961
4.100000,0.004707
4.133333,0.005496
4.166667,0.005256
4.200000,0.004174
4.233333,0.002616
4.266667,0.001002
4.300000,-0.000318
4.333333,-0.001146
4.366667,-0.001464
4.400000,-0.001400
4.433333,-0.001132
4.466667,-0.000813
4.500000,-0.000518
4.533333,-0.000261
4.566667,-0.000028
4.600000,0.000179
4.633333,0.000336
4.666667,0.000405
4.700000,0.000363
4.733333,0.000218
4.766667,0.000003
4.800000,-0.000262
4.833333,-0.000586
4.866667,-0.001003
4.900000,-0.001532
4.933333,-0.002140
4.966667,-0.002735
5.000000,-0.003171
5.033333,-0.003293
5.066667,-0.002975
5.100000,-0.002172
5.133333,-0.000949
5.166667,0.000533
5.200000,0.002058
5.233333,0.003411
5.266667,0.004428
5.300000,0.005018
5.333333,0.005164
5.366667,0.004920
5.400000,0.004394
5.433333,0.003717
5.466667,0.002992
5.500000,0.002260
5.533333,0.001490
5.566667,0.000606
5.600000,-0.000471
5.633333,-0.001781
5.666667,-0.003293
5.700000,-0.004897
5.733333,-0.006412
5.766667,-0.007605
5.800000,-0.008220
5.833333,-0.008042
5.866667,-0.006972
5.900000,-0.005087
5.933333,-0.002643
5.966667,-0.000014
6.000000,0.002421
6.033333,0.004377
6.066667,0.005715
6.100000,0.006422
6.133333,0.006553
6.166667,0.006184
6.200000,0.005408
6.233333,0.004349
6.266667,0.003171
6.300000,0.002047
6.333333,0.001104
6.366667,0.000370
6.400000,-0.000219
6.433333,-0.000769
6.466667,-0.001342
6.500000,-0.001917
6.533333,-0.002404
6.566667,-0.002695
6.600000,-0.002728
6.633333,-0.002520
6.666667,-0.002160
6.700000,-0.001766
6.733333,-0.001426
6.766667,-0.001165
6.800000,-0.000949
6.833333,-0.000707
6.866667,-0.000380
6.900000,0.000048
6.933333,0.000532
6.966667,0.000994
7.000000,0.001349
7.033333,0.001527
7.066667,0.001486
7.100000,0.001210
7.133333,0.000720
7.166667,0.000073
7.200000,-0.000630
7.233333,-0.001256
7.266667,-0.001666
7.300000,-0.001738
7.333333,-0.001404
7.366667,-0.000685
7.400000,0.000290
7.433333,0.001308
7.466667,0.002133
7.500000,0.002592
7.533333,0.002631
7.566667,0.002326
7.600000,0.001841
7.633333,0.001346
7.666667,0.000938
7.700000,0.000611
7.733333,0.000275
7.766667,-0.000169
7.800000,-0.000774
7.833333,-0.001507
7.866667,-0.002258
7.900000,-0.002881
7.933333,-0.003247
7.966667,-0.003285
8.000000,-0.002985
8.033333,-0.002392
8.066667,-0.001593
8.100000,-0.000713
8.133333,0.000098
8.166667,0.000707
8.200000,0.001043
8.233333,0.001126
8.266667,0.001051
8.300000,0.000955
8.333333,0.000964
8.366667,0.001160
8.400000,0.001549
8.433333,0.002035
8.466667,0.002437
8.500000,0.002547
8.533333,0.002241
8.566667,0.001566
8.600000,0.000747
8.633333,0.000095
8.666667,-0.000147
8.700000,0.000076
8.733333,0.000588
8.766667,0.001048
8.800000,0.001096
8.833333,0.000515
8.866667,-0.000653
8.900000,-0.002115
8.933333,-0.003437
8.966667,-0.004209
9.000000,-0.004190
9.033333,-0.003388
9.066667,-0.002037
9.100000,-0.000510
9.133333,0.000807
9.166667,0.001624
9.200000,0.001828
9.233333,0.001482
9.266667,0.000780
9.300000,-0.000025
9.333333,-0.000697
9.366667,-0.001066
9.400000,-0.001054
9.433333,-0.000683
9.466667,-0.000070
9.500000,0.000597
9.533333,0.001103
9.566667,0.001275
9.600000,0.001050
9.633333,0.000511
9.666667,-0.000134
9.700000,-0.000634
9.733333,-0.000795
9.766667,-0.000562
9.800000,-0.000043
9.833333,0.000536
9.866667,0.000917
9.900000,0.000922
9.933333,0.000526
9.966667,-0.000125
10.000000,-0.000750
10.033333,-0.001033
10.066667,-0.000732
10.100000,0.000222
10.133333,0.001683
10.166667,0.003319
10.200000,0.004709
10.233333,0.005467
10.266667,0.005354
10.300000,0.004346
10.333333,0.002631
10.366667,0.000550
10.400000,-0.001503
10.433333,-0.003197
10.466667,-0.004356
10.500000,-0.004980
10.533333,-0.005211
10.566667,-0.005233
10.600000,-0.005172
10.633333,-0.005052
10.666667,-0.004799
10.700000,-0.004314
10.733333,-0.003544
10.766667,-0.002532
10.800000,-0.001399
10.833333,-0.000278
10.866667,0.000761
10.900000,0.001732
10.933333,0.002687
10.966667,0.003638
11.000000,0.004514
11.033333,0.005171
11.066667,0.005458
11.100000,0.005303
11.133333,0.004758
11.166667,0.003989
11.200000,0.003192
11.233333,0.002512
11.266667,0.001983
11.300000,0.001529
11.333333,0.001023
11.366667,0.000350
11.400000,-0.000527
11.433333,-0.001558
11.466667,-0.002625
11.500000,-0.003589
11.533333,-0.004336
11.566667,-0.004803
11.600000,-0.004982
11.633333,-0.004900
11.666667,-0.004597
11.700000,-0.004102
11.733333,-0.003424
11.766667,-0.002549
11.800000,-0.001461
11.833333,-0.000162
11.866667,0.001296
11.900000,0.002814
11.933333,0.004245
11.966667,0.005408
12.000000,0.006110
12.033333,0.006176
12.066667,0.005515
12.100000,0.004163
12.133333,0.002308
12.166667,0.000265
12.200000,-0.001605
12.233333,-0.002985
12.266667,-0.003703
12.300000,-0.003775
12.333333,-0.003387
12.366667,-0.002799
12.400000,-0.002234
12.433333,-0.001805
12.466667,-0.001513
12.500000,-0.001287
12.533333,-0.001029
12.566667,-0.000654
12.600000,-0.000114
12.633333,0.000576
12.666667,0.001338
12.700000,0.002050
12.733333,0.002586
12.766667,0.002861
12.800000,0.002842
12.833333,0.002551
12.866667,0.002046
12.900000,0.001413
12.933333,0.000750
12.966667,0.000151
13.000000,-0.000310
13.033333,-0.000594
13.066667,-0.000698
13.100000,-0.000650
13.133333,-0.000499
13.166667,-0.000312
13.200000,-0.000173
13.233333,-0.000172
13.266667,-0.000392
13.300000,-0.000874
13.333333,-0.001580
13.366667,-0.002381
13.400000,-0.003076
13.433333,-0.003454
13.466667,-0.003363
13.500000,-0.002775
13.533333,-0.001801
13.566667,-0.000653
13.600000,0.000439
13.633333,0.001312
13.666667,0.001920
13.700000,0.002314
13.733333,0.002580
13.766667,0.002775
13.800000,0.002893
13.833333,0.002869
13.866667,0.002610
13.900000,0.002048
13.933333,0.001188
13.966667,0.000137
14.000000,-0.000910
14.033333,-0.001727
14.066667,-0.002136
14.100000,-0.002065
14.133333,-0.001569
14.166667,-0.000814
14.200000,-0.000016
14.233333,0.000613
14.266667,0.000919
14.300000,0.000844
14.333333,0.000440
14.366667,-0.000139
14.400000,-0.000688
14.433333,-0.001024
14.466667,-0.001057
14.500000,-0.000813
14.533333,-0.000399
14.566667,0.000059
14.600000,0.000473
14.633333,0.000807
14.666667,0.001059
14.700000,0.001233
14.733333,0.001321
14.766667,0.001299
14.800000,0.001136
14.833333,0.000814
14.866667,0.000348
14.900000,-0.000207
14.933333,-0.000758
14.966667,-0.001199
15.000000,-0.001442
15.033333,-0.001445
15.066667,-0.001222
15.100000,-0.000837
15.133333,-0.000379
15.166667,0.000047
15.200000,0.000328
15.233333,0.000362
15.266667,0.000075
15.300000,-0.000548
15.333333,-0.001451
15.366667,-0.002501
15.400000,-0.003503
15.433333,-0.004224
15.466667,-0.004424
15.500000,-0.003916
15.533333,-0.002621
15.566667,-0.000623
15.600000,0.001809
15.633333,0.004257
15.666667,0.006258
15.700000,0.007456
15.733333,0.007733
15.766667,0.007231
15.800000,0.006260
15.833333,0.005127
15.866667,0.003991
15.900000,0.002822
15.933333,0.001470
15.966667,-0.000193
16.000000,-0.002147
16.033333,-0.004192
16.066667,-0.006007
16.100000,-0.007271
16.133333,-0.007756
16.166667,-0.007385
16.200000,-0.006234
16.233333,-0.004520
16.266667,-0.002551
16.300000,-0.000651
16.333333,0.000916
16.366667,0.002006
16.400000,0.002607
16.433333,0.002811
16.466667,0.002758
16.500000,0.002576
16.533333,0.002334
16.566667,0.002025
16.600000,0.001592
16.633333,0.000987
16.666667,0.000215
16.700000,-0.000648
16.733333,-0.001479
16.766667,-0.002130
16.800000,-0.002468
16.833333,-0.002394
16.866667,-0.001873
16.900000,-0.000954
16.933333,0.000236
16.966667,0.001523
17.000000,0.002717
17.033333,0.003652
17.066667,0.004196
17.100000,0.004274
17.133333,0.003874
17.166667,0.003059
17.200000,0.001949
17.233333,0.000687
17.266667,-0.000584
17.300000,-0.001747
17.333333,-0.002706
17.366667,-0.003390
17.400000,-0.003739
17.433333,-0.003709
17.466667,-0.003284
17.500000,-0.002496
17.533333,-0.001457
17.566667,-0.000356
17.600000,0.000576
17.633333,0.001150
17.666667,0.001294
17.700000,0.001077
17.733333,0.000663
17.766667,0.000231
17.800000,-0.000080
17.833333,-0.000201
17.866667,-0.000130
17.900000,0.000075
17.933333,0.000314
17.966667,0.000477
18.000000,0.000477
18.033333,0.000295
18.066667,-0.000017
18.100000,-0.000356
18.133333,-0.000614
18.166667,-0.000723
18.200000,-0.000674
18.233333,-0.000519
18.266667,-0.000338
18.300000,-0.000191
18.333333,-0.000082
18.366667,0.000039
18.400000,0.000249
18.433333,0.000597
18.466667,0.001072
18.500000,0.001595
18.533333,0.002046
18.566667,0.002322
18.600000,0.002367
18.633333,0.002195
18.666667,0.001862
18.700000,0.001435
18.733333,0.000963
18.766667,0.000454
18.800000,-0.000120
18.833333,-0.000809
18.866667,-0.001633
18.900000,-0.002532
18.933333,-0.003361
18.966667,-0.003931
19.000000,-0.004088
19.033333,-0.003762
19.066667,-0.002995
19.100000,-0.001925
19.133333,-0.000758
19.166667,0.000275
19.200000,0.000983
19.233333,0.001268
19.266667,0.001175
19.300000,0.000873
19.333333,0.000581
19.366667,0.000474
19.400000,0.000622
19.433333,0.001005
19.466667,0.001549
19.500000,0.002158
19.533333,0.002729
19.566667,0.003141
19.600000,0.003276
19.633333,0.003026
19.666667,0.002336
19.700000,0.001228
19.733333,-0.000164
19.766667,-0.001607
19.800000,-0.002812
19.833333,-0.003528
19.866667,-0.003632
19.900000,-0.003174
19.933333,-0.002357
19.966667,-0.001459
20.000000,-0.000722
20.033333,-0.000272
20.066667,-0.000070
20.100000,0.000034
20.133333,0.000218
20.166667,0.000582
20.200000,0.001107
20.233333,0.001683
20.266667,0.002169
20.300000,0.002450
20.333333,0.002461
20.366667,0.002190
20.400000,0.001670
20.433333,0.000971
20.466667,0.000194
20.500000,-0.000555
20.533333,-0.001195
20.566667,-0.001692
20.600000,-0.002051
20.633333,-0.002283
20.666667,-0.002371
20.700000,-0.002269
20.733333,-0.001930
20.766667,-0.001360
20.800000,-0.000649
20.833333,0.000044
20.866667,0.000553
20.900000,0.000767
20.933333,0.000656
20.966667,0.000259
21.000000,-0.000338
21.033333,-0.001006
21.066667,-0.001582
21.100000,-0.001893
21.133333,-0.001804
21.166667,-0.001270
21.200000,-0.000349
21.233333,0.000814
21.266667,0.002037
21.300000,0.003152
21.333333,0.004024
21.366667,0.004557
21.400000,0.004700
21.433333,0.004452
21.466667,0.003873
21.500000,0.003072
21.533333,0.002171
21.566667,0.001252
21.600000,0.000329
21.633333,-0.000649
21.666667,-0.001748
21.700000,-0.003003
21.733333,-0.004372
21.766667,-0.005723
21.800000,-0.006838
21.833333,-0.007446
21.866667,-0.007279
21.900000,-0.006165
21.933333,-0.004110
21.966667,-0.001356
22.000000,0.001646
22.033333,0.004348
22.066667,0.006272
22.100000,0.007148
22.133333,0.006969
22.166667,0.005967
22.200000,0.004520
22.233333,0.003034
22.266667,0.001820
22.300000,0.001014
22.333333,0.000566
22.366667,0.000293
22.400000,-0.000039
22.433333,-0.000627
22.466667,-0.001586
22.500000,-0.002913
22.533333,-0.004481
22.566667,-0.006043
22.600000,-0.007259
22.633333,-0.007759
22.666667,-0.007247
22.700000,-0.005606
22.733333,-0.002977
22.766667,0.000232
22.800000,0.003435
22.833333,0.006021
22.866667,0.007537
22.900000,0.007806
22.933333,0.006951
22.966667,0.005312
23.000000,0.003317
23.033333,0.001354
23.066667,-0.000300
23.100000,-0.001497
23.133333,-0.002195
23.166667,-0.002428
23.200000,-0.002265
23.233333,-0.001787
23.266667,-0.001077
23.300000,-0.000216
23.333333,0.000709
23.366667,0.001595
23.400000,0.002325
23.433333,0.002777
23.466667,0.002841
23.500000,0.002451
23.533333,0.001623
23.566667,0.000480
23.600000,-0.000764
23.633333,-0.001866
23.666667,-0.002638
23.700000,-0.003014
23.733333,-0.003051
23.766667,-0.002894
23.800000,-0.002712
23.833333,-0.002630
23.866667,-0.002687
23.900000,-0.002832
23.933333,-0.002950
23.966667,-0.002894
24.000000,-0.002521
24.033333,-0.001738
24.066667,-0.000544
24.100000,0.000941
24.133333,0.002494
24.166667,0.003841
24.200000,0.004730
24.233333,0.004985
24.266667,0.004548
24.300000,0.003505
24.333333,0.002087
24.366667,0.000623
24.400000,-0.000543
24.433333,-0.001156
24.466667,-0.001130
24.500000,-0.000571
24.533333,0.000283
24.566667,0.001142
24.600000,0.001757
24.633333,0.001955
24.666667,0.001659
24.700000,0.000872
24.733333,-0.000303
24.766667,-0.001654
24.800000,-0.002883
24.833333,-0.003690
24.866667,-0.003878
24.900000,-0.003429
24.933333,-0.002494
24.966667,-0.001313
25.000000,-0.000121
25.033333,0.000892
25.066667,0.001582
25.100000,0.001856
25.133333,0.001687
25.166667,0.001147
25.200000,0.000416
25.233333,-0.000250
25.266667,-0.000592
25.300000,-0.000446
25.333333,0.000200
25.366667,0.001196
25.400000,0.002270
25.433333,0.003107
25.466667,0.003425
25.500000,0.003043
25.533333,0.001933
25.566667,0.000242
25.600000,-0.001727
25.633333,-0.003583
25.666667,-0.004931
25.700000,-0.005470
25.733333,-0.005071
25.766667,-0.003809
25.800000,-0.001963
25.833333,0.000048
25.866667,0.001777
25.900000,0.002863
25.933333,0.003144
25.966667,0.002693
26.000000,0.001787
26.033333,0.000800
26.066667,0.000060
26.100000,-0.000264
26.133333,-0.000194
26.166667,0.000118
26.200000,0.000478
26.233333,0.000741
26.266667,0.000846
26.300000,0.000799
26.333333,0.000631
26.366667,0.000370
26.400000,0.000039
26.433333,-0.000330
26.466667,-0.000706
26.500000,-0.001065
26.533333,-0.001398
26.566667,-0.001697
26.600000,-0.001929
26.633333,-0.002005
26.666667,-0.001767
26.700000,-0.001027
26.733333,0.000326
26.766667,0.002205
26.800000,0.004245
26.833333,0.005867
26.866667,0.006468
26.900000,0.005653
26.933333,0.003402
26.966667,0.000113
27.000000,-0.003502
27.033333,-0.006612
27.066667,-0.008501
27.100000,-0.008753
27.133333,-0.007347
27.166667,-0.004646
27.200000,-0.001278
27.233333,0.002044
27.266667,0.004699
27.300000,0.006281
27.333333,0.006640
27.366667,0.005852
27.400000,0.004171
27.433333,0.001974
27.466667,-0.000285
27.500000,-0.002125
27.533333,-0.003135
27.566667,-0.003099
27.600000,-0.002089
27.633333,-0.000485
27.666667,0.001133
27.700000,0.002169
27.733333,0.002215
27.766667,0.001199
27.800000,-0.000576
27.833333,-0.002523
27.866667,-0.003967
27.900000,-0.004378
27.933333,-0.003573
27.966667,-0.001781
28.000000,0.000434
28.033333,0.002386
28.066667,0.003517
28.100000,0.003580
28.133333,0.002692
28.166667,0.001267
28.200000,-0.000149
28.233333,-0.001074
28.266667,-0.001256
28.300000,-0.000750
28.333333,0.000116
28.366667,0.000878
28.400000,0.001126
28.433333,0.000671
28.466667,-0.000368
28.500000,-0.001606
28.533333,-0.002559
28.566667,-0.002841
28.600000,-0.002328
28.633333,-0.001203
28.666667,0.000120
28.700000,0.001172
28.733333,0.001620
28.766667,0.001411
28.800000,0.000767
28.833333,0.000070
28.866667,-0.000324
28.900000,-0.000220
28.933333,0.000362
28.966667,0.001229
29.000000,0.002111
29.033333,0.002754
29.066667,0.002997
29.100000,0.002792
29.133333,0.002212
29.166667,0.001409
29.200000,0.000566
29.233333,-0.000167
29.266667,-0.000711
29.300000,-0.001060
29.333333,-0.001264
29.366667,-0.001393
29.400000,-0.001514
29.433333,-0.001669
29.466667,-0.001871
29.500000,-0.002107
29.533333,-0.002347
29.566667,-0.002558
29.600000,-0.002704
29.633333,-0.002744
29.666667,-0.002636
29.700000,-0.002342
29.733333,-0.001844
29.766667,-0.001153
29.800000,-0.000324
29.833333,0.000550
29.866667,0.001359
29.900000,0.002010
29.933333,0.002450
29.966667,0.002677
30.000000,0.002725
30.033333,0.002643
30.066667,0.002480
30.100000,0.002288
30.133333,0.002113
30.166667,0.001988
30.200000,0.001906
30.233333,0.001813
30.266667,0.001619
30.300000,0.001227
30.333333,0.000579
30.366667,-0.000301
30.400000,-0.001297
30.433333,-0.002215
30.466667,-0.002846
30.500000,-0.003021
30.533333,-0.002668
30.566667,-0.001829
30.600000,-0.000659
30.633333,0.000601
30.666667,0.001670
30.700000,0.002300
30.733333,0.002358
30.766667,0.001857
30.800000,0.000947
30.833333,-0.000154
30.866667,-0.001218
30.900000,-0.002058
30.933333,-0.002558
30.966667,-0.002688
31.000000,-0.002509
31.033333,-0.002154
31.066667,-0.001778
31.100000,-0.001501
31.133333,-0.001366
31.166667,-0.001334
31.200000,-0.001311
31.233333,-0.001187
31.266667,-0.000881
31.300000,-0.000368
31.333333,0.000306
31.366667,0.001041
31.400000,0.001705
31.433333,0.002184
31.466667,0.002417
31.500000,0.002411
31.533333,0.002227
31.566667,0.001963
31.600000,0.001735
31.633333,0.001664
31.666667,0.001845
31.700000,0.002296
31.733333,0.002919
31.766667,0.003508
31.800000,0.003811
31.833333,0.003611
31.866667,0.002785
31.900000,0.001346
31.933333,-0.000547
31.966667,-0.002603
32.000000,-0.004451
32.033333,-0.005746
32.066667,-0.006272
32.100000,-0.006001
32.133333,-0.005080
32.166667,-0.003763
32.200000,-0.002322
32.233333,-0.000972
32.266667,0.000165
32.300000,0.001042
32.333333,0.001637
32.366667,0.001925
32.400000,0.001867
32.433333,0.001451
32.466667,0.000726
32.500000,-0.000189
32.533333,-0.001122
32.566667,-0.001884
32.600000,-0.002300
32.633333,-0.002229
32.666667,-0.001609
32.700000,-0.000485
32.733333,0.000959
32.766667,0.002434
32.800000,0.003621
32.833333,0.004264
32.866667,0.004243
32.900000,0.003597
32.933333,0.002504
32.966667,0.001229
33.000000,0.000061
33.033333,-0.000744
33.066667,-0.001010
33.100000,-0.000679
33.133333,0.000161
33.166667,0.001282
33.200000,0.002345
33.233333,0.002994
33.266667,0.002956
33.300000,0.002129
33.333333,0.000603
33.366667,-0.001360
33.400000,-0.003393
33.433333,-0.005105
33.466667,-0.006166
33.500000,-0.006378
33.533333,-0.005711
33.566667,-0.004308
33.600000,-0.002453
33.633333,-0.000503
33.666667,0.001197
33.700000,0.002390
33.733333,0.002942
33.766667,0.002849
33.800000,0.002211
33.833333,0.001210
33.866667,0.000081
33.900000,-0.000929
33.933333,-0.001605
33.966667,-0.001808
34.000000,-0.001509
34.033333,-0.000785
34.066667,0.000202
34.100000,0.001253
34.133333,0.002191
34.166667,0.002901
34.200000,0.003341
34.233333,0.003517
34.266667,0.003456
34.300000,0.003198
34.333333,0.002792
34.366667,0.002298
34.400000,0.001758
34.433333,0.001175
34.466667,0.000496
34.500000,-0.000360
34.533333,-0.001446
34.566667,-0.002721
34.600000,-0.004021
34.633333,-0.005095
