Time_Sec,Amplitude
0.000000,0.000068
0.033333,-0.000174
0.066667,-0.000381
0.100000,-0.000525
0.133333,-0.000592
0.166667,-0.000583
0.200000,-0.000512
0.233333,-0.000404
0.266667,-0.000284
0.300000,-0.000174
0.333333,-0.000087
0.366667,-0.000023
0.400000,0.000025
0.433333,0.000069
0.466667,0.000114
0.500000,0.000163
0.533333,0.000206
0.566667,0.000231
0.600000,0.000223
0.633333,0.000175
0.666667,0.000092
0.700000,-0.000011
0.733333,-0.000113
0.766667,-0.000188
0.800000,-0.000220
0.833333,-0.000201
0.866667,-0.000137
0.900000,-0.000044
0.933333,0.000055
0.966667,0.000138
1.000000,0.000190
1.033333,0.000206
1.066667,0.000190
1.100000,0.000156
1.133333,0.000117
1.166667,0.000083
1.200000,0.000061
1.233333,0.000052
1.266667,0.000050
1.300000,0.000049
1.333333,0.000041
1.366667,0.000023
1.400000,-0.000001
1.433333,-0.000028
1.466667,-0.000052
1.500000,-0.000067
1.533333,-0.000072
1.566667,-0.000070
1.600000,-0.000066
1.633333,-0.000067
1.666667,-0.000077
1.700000,-0.000093
1.733333,-0.000108
1.766667,-0.000114
1.800000,-0.000106
1.833333,-0.000082
1.866667,-0.000046
1.900000,-0.000006
1.933333,0.000027
1.966667,0.000046
2.000000,0.000045
2.033333,0.000029
2.066667,0.000003
2.100000,-0.000023
2.133333,-0.000038
2.166667,-0.000039
2.200000,-0.000023
2.233333,0.000005
2.266667,0.000037
2.300000,0.000064
2.333333,0.000077
2.366667,0.000074
2.400000,0.000059
2.433333,0.000039
2.466667,0.000024
2.500000,0.000020
2.533333,0.000029
2.566667,0.000049
2.600000,0.000071
2.633333,0.000084
2.666667,0.000080
2.700000,0.000058
2.733333,0.000023
2.766667,-0.000016
2.800000,-0.000050
2.833333,-0.000070
2.866667,-0.000075
2.900000,-0.000068
2.933333,-0.000056
2.966667,-0.000047
3.000000,-0.000046
3.033333,-0.000051
3.066667,-0.000056
3.100000,-0.000053
3.133333,-0.000037
3.166667,-0.000006
3.200000,0.000034
3.233333,0.000075
3.266667,0.000107
3.300000,0.000118
3.333333,0.000104
3.366667,0.000062
3.400000,0.000001
3.433333,-0.000069
3.466667,-0.000131
3.500000,-0.000170
3.533333,-0.000177
3.566667,-0.000147
3.600000,-0.000089
3.633333,-0.000016
3.666667,0.000053
3.700000,0.000104
3.733333,0.000130
3.766667,0.000130
3.800000,0.000112
3.833333,0.000083
3.866667,0.000050
3.900000,0.000018
3.933333,-0.000013
3.966667,-0.000043
4.000000,-0.000071
4.033333,-0.000092
4.066667,-0.000101
4.100000,-0.000092
4.133333,-0.000062
4.166667,-0.000014
4.200000,0.000043
4.233333,0.000100
4.266667,0.000143
4.300000,0.000164
4.333333,0.000157
4.366667,0.000123
4.400000,0.000073
4.433333,0.000018
4.466667,-0.000028
4.500000,-0.000055
4.533333,-0.000062
4.566667,-0.000051
4.600000,-0.000031
4.633333,-0.000016
4.666667,-0.000014
4.700000,-0.000030
4.733333,-0.000063
4.766667,-0.000104
4.800000,-0.000139
4.833333,-0.000160
4.866667,-0.000156
4.900000,-0.000128
4.933333,-0.000082
4.966667,-0.000027
5.000000,0.000025
5.033333,0.000064
5.066667,0.000088
5.100000,0.000100
5.133333,0.000104
5.166667,0.000104
5.200000,0.000105
5.233333,0.000104
5.266667,0.000099
5.300000,0.000085
5.333333,0.000059
5.366667,0.000023
5.400000,-0.000015
5.433333,-0.000045
5.466667,-0.000060
5.500000,-0.000055
5.533333,-0.000033
5.566667,-0.000001
5.600000,0.000030
5.633333,0.000047
5.666667,0.000045
5.700000,0.000022
5.733333,-0.000015
5.766667,-0.000056
5.800000,-0.000087
5.833333,-0.000100
5.866667,-0.000090
5.900000,-0.000061
5.933333,-0.000022
5.966667,0.000013
6.000000,0.000033
6.033333,0.000033
6.066667,0.000016
6.100000,-0.000008
6.133333,-0.000029
6.166667,-0.000037
6.200000,-0.000029
6.233333,-0.000007
6.266667,0.000021
6.300000,0.000042
6.333333,0.000049
6.366667,0.000040
6.400000,0.000018
6.433333,-0.000007
6.466667,-0.000025
6.500000,-0.000030
6.533333,-0.000018
6.566667,0.000004
6.600000,0.000028
6.633333,0.000045
6.666667,0.000050
6.700000,0.000043
6.733333,0.000030
6.766667,0.000018
6.800000,0.000016
6.833333,0.000024
6.866667,0.000041
6.900000,0.000058
6.933333,0.000066
6.966667,0.000056
7.000000,0.000025
7.033333,-0.000024
7.066667,-0.000080
7.100000,-0.000129
7.133333,-0.000157
7.166667,-0.000157
7.200000,-0.000129
7.233333,-0.000081
7.266667,-0.000025
7.300000,0.000024
7.333333,0.000056
7.366667,0.000068
7.400000,0.000064
7.433333,0.000054
7.466667,0.000046
7.500000,0.000047
7.533333,0.000057
7.566667,0.000068
7.600000,0.000072
7.633333,0.000060
7.666667,0.000029
7.700000,-0.000017
7.733333,-0.000068
7.766667,-0.000108
7.800000,-0.000124
7.833333,-0.000111
7.866667,-0.000070
7.900000,-0.000013
7.933333,0.000044
7.966667,0.000083
8.000000,0.000093
8.033333,0.000072
8.066667,0.000027
8.100000,-0.000027
8.133333,-0.000073
8.166667,-0.000098
8.200000,-0.000095
8.233333,-0.000066
8.266667,-0.000019
8.300000,0.000033
8.333333,0.000079
8.366667,0.000110
8.400000,0.000123
8.433333,0.000120
8.466667,0.000108
8.500000,0.000090
8.533333,0.000071
8.566667,0.000051
8.600000,0.000027
8.633333,-0.000005
8.666667,-0.000047
8.700000,-0.000092
8.733333,-0.000134
8.766667,-0.000160
8.800000,-0.000162
8.833333,-0.000137
8.866667,-0.000088
8.900000,-0.000026
8.933333,0.000033
8.966667,0.000075
9.000000,0.000090
9.033333,0.000079
9.066667,0.000049
9.100000,0.000015
9.133333,-0.000012
9.166667,-0.000021
9.200000,-0.000013
9.233333,0.000008
9.266667,0.000029
9.300000,0.000039
9.333333,0.000029
9.366667,-0.000000
9.400000,-0.000042
9.433333,-0.000082
9.466667,-0.000107
9.500000,-0.000108
9.533333,-0.000081
9.566667,-0.000031
9.600000,0.000028
9.633333,0.000082
9.666667,0.000119
9.700000,0.000132
9.733333,0.000123
9.766667,0.000099
9.800000,0.000068
9.833333,0.000038
9.866667,0.000012
9.900000,-0.000006
9.933333,-0.000019
9.966667,-0.000029
10.000000,-0.000037
10.033333,-0.000042
10.066667,-0.000041
10.100000,-0.000032
10.133333,-0.000013
10.166667,0.000012
10.200000,0.000038
10.233333,0.000054
10.266667,0.000054
10.300000,0.000033
10.333333,-0.000010
10.366667,-0.000066
10.400000,-0.000122
10.433333,-0.000162
10.466667,-0.000175
10.500000,-0.000154
10.533333,-0.000102
10.566667,-0.000031
10.600000,0.000043
10.633333,0.000102
10.666667,0.000133
10.700000,0.000131
10.733333,0.000102
10.766667,0.000059
10.800000,0.000016
10.833333,-0.000014
10.866667,-0.000026
10.900000,-0.000020
10.933333,-0.000004
10.966667,0.000013
11.000000,0.000020
11.033333,0.000014
11.066667,-0.000001
11.100000,-0.000018
11.133333,-0.000029
11.166667,-0.000027
11.200000,-0.000011
11.233333,0.000016
11.266667,0.000047
11.300000,0.000071
11.333333,0.000082
11.366667,0.000077
11.400000,0.000059
11.433333,0.000034
11.466667,0.000011
11.500000,-0.000005
11.533333,-0.000011
11.566667,-0.000013
11.600000,-0.000015
11.633333,-0.000026
11.666667,-0.000048
11.700000,-0.000081
11.733333,-0.000115
11.766667,-0.000138
11.800000,-0.000140
11.833333,-0.000116
11.866667,-0.000069
11.900000,-0.000010
11.933333,0.000049
11.966667,0.000092
12.000000,0.000109
12.033333,0.000100
12.066667,0.000071
12.100000,0.000033
12.133333,0.000001
12.166667,-0.000017
12.200000,-0.000016
12.233333,0.000000
12.266667,0.000022
12.300000,0.000038
12.333333,0.000038
12.366667,0.000022
12.400000,-0.000008
12.433333,-0.000040
12.466667,-0.000063
12.500000,-0.000069
12.533333,-0.000054
12.566667,-0.000022
12.600000,0.000016
12.633333,0.000050
12.666667,0.000069
12.700000,0.000070
12.733333,0.000055
12.766667,0.000034
12.800000,0.000014
12.833333,0.000000
12.866667,-0.000004
12.900000,-0.000002
12.933333,-0.000002
12.966667,-0.000008
13.000000,-0.000024
13.033333,-0.000047
13.066667,-0.000068
13.100000,-0.000077
13.133333,-0.000067
13.166667,-0.000035
13.200000,0.000012
13.233333,0.000063
13.266667,0.000103
13.300000,0.000119
13.333333,0.000105
13.366667,0.000064
13.400000,0.000008
13.433333,-0.000046
13.466667,-0.000083
13.500000,-0.000092
13.533333,-0.000074
13.566667,-0.000038
13.600000,0.000002
13.633333,0.000032
13.666667,0.000039
13.700000,0.000022
13.733333,-0.000011
13.766667,-0.000049
13.800000,-0.000076
13.833333,-0.000082
13.866667,-0.000065
13.900000,-0.000028
13.933333,0.000015
13.966667,0.000050
14.000000,0.000067
14.033333,0.000062
14.066667,0.000038
14.100000,0.000006
14.133333,-0.000021
14.166667,-0.000032
14.200000,-0.000024
14.233333,0.000000
14.266667,0.000032
14.300000,0.000058
14.333333,0.000070
14.366667,0.000063
14.400000,0.000042
14.433333,0.000014
14.466667,-0.000013
14.500000,-0.000031
14.533333,-0.000034
14.566667,-0.000025
14.600000,-0.000008
14.633333,0.000008
14.666667,0.000015
14.700000,0.000011
14.733333,-0.000004
14.766667,-0.000023
14.800000,-0.000038
14.833333,-0.000042
14.866667,-0.000036
14.900000,-0.000021
14.933333,-0.000006
14.966667,0.000001
15.000000,-0.000002
15.033333,-0.000015
15.066667,-0.000029
15.100000,-0.000036
15.133333,-0.000029
15.166667,-0.000005
15.200000,0.000030
15.233333,0.000068
15.266667,0.000096
15.300000,0.000104
15.333333,0.000087
15.366667,0.000050
15.400000,0.000002
15.433333,-0.000042
15.466667,-0.000069
15.500000,-0.000072
15.533333,-0.000051
15.566667,-0.000016
15.600000,0.000022
15.633333,0.000046
15.666667,0.000049
15.700000,0.000027
15.733333,-0.000014
15.766667,-0.000060
15.800000,-0.000097
15.833333,-0.000112
15.866667,-0.000099
15.900000,-0.000060
15.933333,-0.000007
15.966667,0.000047
16.000000,0.000089
16.033333,0.000110
16.066667,0.000107
16.100000,0.000083
16.133333,0.000047
16.166667,0.000007
16.200000,-0.000028
16.233333,-0.000055
16.266667,-0.000073
16.300000,-0.000083
16.333333,-0.000087
16.366667,-0.000084
16.400000,-0.000071
16.433333,-0.000045
16.466667,-0.000008
16.500000,0.000038
16.533333,0.000083
16.566667,0.000118
16.600000,0.000135
16.633333,0.000128
16.666667,0.000099
16.700000,0.000053
16.733333,0.000002
16.766667,-0.000041
16.800000,-0.000065
16.833333,-0.000064
16.866667,-0.000042
16.900000,-0.000005
16.933333,0.000033
16.966667,0.000057
17.000000,0.000057
17.033333,0.000033
17.066667,-0.000009
17.100000,-0.000054
17.133333,-0.000088
17.166667,-0.000097
17.200000,-0.000080
17.233333,-0.000043
17.266667,0.000002
17.300000,0.000037
17.333333,0.000051
17.366667,0.000037
17.400000,0.000001
17.433333,-0.000046
17.466667,-0.000088
17.500000,-0.000111
17.533333,-0.000108
17.566667,-0.000078
17.600000,-0.000031
17.633333,0.000019
17.666667,0.000058
17.700000,0.000080
17.733333,0.000084
17.766667,0.000075
17.800000,0.000063
17.833333,0.000054
17.866667,0.000052
17.900000,0.000053
17.933333,0.000053
17.966667,0.000045
18.000000,0.000025
18.033333,-0.000001
18.066667,-0.000026
18.100000,-0.000039
18.133333,-0.000035
18.166667,-0.000014
18.200000,0.000016
18.233333,0.000044
18.266667,0.000058
18.300000,0.000050
18.333333,0.000021
18.366667,-0.000019
18.400000,-0.000054
18.433333,-0.000073
18.466667,-0.000066
18.500000,-0.000034
18.533333,0.000010
18.566667,0.000050
18.600000,0.000067
18.633333,0.000050
18.666667,-0.000003
18.700000,-0.000080
18.733333,-0.000159
18.766667,-0.000216
18.800000,-0.000231
18.833333,-0.000197
18.866667,-0.000120
18.900000,-0.000018
18.933333,0.000081
18.966667,0.000154
19.000000,0.000185
19.033333,0.000172
19.066667,0.000128
19.100000,0.000069
19.133333,0.000018
19.166667,-0.000011
19.200000,-0.000011
19.233333,0.000014
19.266667,0.000051
19.300000,0.000085
19.333333,0.000102
19.366667,0.000095
19.400000,0.000066
19.433333,0.000025
19.466667,-0.000019
19.500000,-0.000053
19.533333,-0.000071
19.566667,-0.000074
19.600000,-0.000065
19.633333,-0.000053
19.666667,-0.000042
19.700000,-0.000037
19.733333,-0.000036
19.766667,-0.000034
19.800000,-0.000024
19.833333,-0.000004
19.866667,0.000025
19.900000,0.000057
19.933333,0.000082
19.966667,0.000090
20.000000,0.000077
20.033333,0.000044
20.066667,-0.000002
20.100000,-0.000048
20.133333,-0.000083
20.166667,-0.000099
20.200000,-0.000095
20.233333,-0.000076
20.266667,-0.000052
20.300000,-0.000034
20.333333,-0.000029
20.366667,-0.000037
20.400000,-0.000052
20.433333,-0.000064
20.466667,-0.000063
20.500000,-0.000042
20.533333,-0.000006
20.566667,0.000039
20.600000,0.000078
20.633333,0.000100
20.666667,0.000097
20.700000,0.000073
20.733333,0.000039
20.766667,0.000008
20.800000,-0.000004
20.833333,0.000009
20.866667,0.000044
20.900000,0.000091
20.933333,0.000132
20.966667,0.000152
21.000000,0.000140
21.033333,0.000096
21.066667,0.000030
21.100000,-0.000041
21.133333,-0.000099
21.166667,-0.000130
21.200000,-0.000129
21.233333,-0.000103
21.266667,-0.000064
21.300000,-0.000028
21.333333,-0.000008
21.366667,-0.000009
21.400000,-0.000028
21.433333,-0.000053
21.466667,-0.000071
21.500000,-0.000072
21.533333,-0.000055
21.566667,-0.000022
21.600000,0.000015
21.633333,0.000043
21.666667,0.000055
21.700000,0.000046
21.733333,0.000022
21.766667,-0.000005
21.800000,-0.000025
21.833333,-0.000027
21.866667,-0.000008
21.900000,0.000025
21.933333,0.000063
21.966667,0.000091
22.000000,0.000099
22.033333,0.000081
22.066667,0.000043
22.100000,-0.000004
22.133333,-0.000047
22.166667,-0.000073
22.200000,-0.000078
22.233333,-0.000064
22.266667,-0.000040
22.300000,-0.000017
22.333333,-0.000004
22.366667,-0.000005
22.400000,-0.000016
22.433333,-0.000031
22.466667,-0.000039
22.500000,-0.000032
22.533333,-0.000011
22.566667,0.000022
22.600000,0.000056
22.633333,0.000079
22.666667,0.000083
22.700000,0.000068
22.733333,0.000039
22.766667,0.000008
22.800000,-0.000014
22.833333,-0.000020
22.866667,-0.000009
22.900000,0.000013
22.933333,0.000035
22.966667,0.000044
23.000000,0.000035
23.033333,0.000006
23.066667,-0.000033
23.100000,-0.000070
23.133333,-0.000093
23.166667,-0.000093
23.200000,-0.000071
23.233333,-0.000034
23.266667,0.000007
23.300000,0.000039
23.333333,0.000052
23.366667,0.000047
23.400000,0.000028
23.433333,0.000005
23.466667,-0.000012
23.500000,-0.000016
23.533333,-0.000006
23.566667,0.000013
23.600000,0.000031
23.633333,0.000040
23.666667,0.000033
23.700000,0.000009
23.733333,-0.000023
23.766667,-0.000053
23.800000,-0.000069
23.833333,-0.000065
23.866667,-0.000041
23.900000,-0.000004
23.933333,0.000033
23.966667,0.000058
24.000000,0.000062
24.033333,0.000043
24.066667,0.000010
24.100000,-0.000028
24.133333,-0.000057
24.166667,-0.000069
24.200000,-0.000061
24.233333,-0.000035
24.266667,-0.000001
24.300000,0.000030
24.333333,0.000050
24.366667,0.000055
24.400000,0.000047
24.433333,0.000033
24.466667,0.000020
24.500000,0.000016
24.533333,0.000020
24.566667,0.000031
24.600000,0.000042
24.633333,0.000044
24.666667,0.000034
24.700000,0.000012
24.733333,-0.000015
24.766667,-0.000038
24.800000,-0.000047
24.833333,-0.000039
24.866667,-0.000016
24.900000,0.000014
24.933333,0.000037
24.966667,0.000041
25.000000,0.000020
25.033333,-0.000022
25.066667,-0.000074
25.100000,-0.000118
25.133333,-0.000140
25.166667,-0.000129
25.200000,-0.000086
25.233333,-0.000024
25.266667,0.000042
25.300000,0.000092
25.333333,0.000112
25.366667,0.000101
25.400000,0.000066
25.433333,0.000021
25.466667,-0.000020
25.500000,-0.000043
25.533333,-0.000046
25.566667,-0.000031
25.600000,-0.000007
25.633333,0.000015
25.666667,0.000026
25.700000,0.000025
25.733333,0.000016
25.766667,0.000006
25.800000,0.000003
25.833333,0.000012
25.866667,0.000030
25.900000,0.000051
25.933333,0.000065
25.966667,0.000063
26.000000,0.000042
26.033333,0.000007
26.066667,-0.000034
26.100000,-0.000066
26.133333,-0.000079
26.166667,-0.000067
26.200000,-0.000035
26.233333,0.000007
26.266667,0.000045
26.300000,0.000066
26.333333,0.000063
26.366667,0.000037
26.400000,-0.000003
26.433333,-0.000041
26.466667,-0.000067
26.500000,-0.000073
26.533333,-0.000059
26.566667,-0.000032
26.600000,-0.000003
26.633333,0.000015
26.666667,0.000018
26.700000,0.000004
26.733333,-0.000019
26.766667,-0.000041
26.800000,-0.000052
26.833333,-0.000048
26.866667,-0.000030
26.900000,-0.000004
26.933333,0.000020
26.966667,0.000034
27.000000,0.000034
27.033333,0.000021
27.066667,0.000005
27.100000,-0.000004
27.133333,0.000002
27.166667,0.000026
27.200000,0.000063
27.233333,0.000104
27.266667,0.000134
27.300000,0.000142
27.333333,0.000121
27.366667,0.000072
27.400000,0.000005
27.433333,-0.000064
27.466667,-0.000119
27.500000,-0.000149
27.533333,-0.000151
27.566667,-0.000127
27.600000,-0.000089
27.633333,-0.000050
27.666667,-0.000022
27.700000,-0.000008
27.733333,-0.000005
27.766667,-0.000007
27.800000,-0.000004
27.833333,0.000008
27.866667,0.000031
27.900000,0.000059
27.933333,0.000083
27.966667,0.000094
28.000000,0.000086
28.033333,0.000060
28.066667,0.000023
28.100000,-0.000014
28.133333,-0.000041
28.166667,-0.000049
28.200000,-0.000038
28.233333,-0.000012
28.266667,0.000017
28.300000,0.000039
28.333333,0.000044
28.366667,0.000031
28.400000,0.000004
28.433333,-0.000026
28.466667,-0.000049
28.500000,-0.000057
28.533333,-0.000047
28.566667,-0.000025
28.600000,-0.000001
28.633333,0.000014
28.666667,0.000011
28.700000,-0.000009
28.733333,-0.000036
28.766667,-0.000059
28.800000,-0.000063
28.833333,-0.000045
28.866667,-0.000006
28.900000,0.000043
28.933333,0.000086
28.966667,0.000108
29.000000,0.000101
29.033333,0.000066
29.066667,0.000013
29.100000,-0.000040
29.133333,-0.000080
29.166667,-0.000093
29.200000,-0.000077
29.233333,-0.000039
29.266667,0.000007
29.300000,0.000046
29.333333,0.000064
29.366667,0.000057
29.400000,0.000031
29.433333,-0.000002
29.466667,-0.000027
29.500000,-0.000034
29.533333,-0.000018
29.566667,0.000013
29.600000,0.000049
29.633333,0.000074
29.666667,0.000077
29.700000,0.000054
29.733333,0.000012
29.766667,-0.000037
29.800000,-0.000078
29.833333,-0.000098
29.866667,-0.000092
29.900000,-0.000063
29.933333,-0.000021
29.966667,0.000019
30.000000,0.000044
30.033333,0.000050
30.066667,0.000038
30.100000,0.000016
30.133333,-0.000005
30.166667,-0.000018
30.200000,-0.000018
30.233333,-0.000009
30.266667,0.000001
30.300000,0.000006
30.333333,0.000001
30.366667,-0.000013
30.400000,-0.000030
30.433333,-0.000042
30.466667,-0.000041
30.500000,-0.000025
30.533333,0.000004
30.566667,0.000039
30.600000,0.000068
30.633333,0.000083
30.666667,0.000077
30.700000,0.000052
30.733333,0.000015
30.766667,-0.000022
30.800000,-0.000048
30.833333,-0.000056
30.866667,-0.000046
30.900000,-0.000022
30.933333,0.000005
30.966667,0.000025
31.000000,0.000028
31.033333,0.000014
31.066667,-0.000012
31.100000,-0.000039
31.133333,-0.000058
31.166667,-0.000060
31.200000,-0.000044
31.233333,-0.000015
31.266667,0.000016
31.300000,0.000039
31.333333,0.000046
31.366667,0.000036
31.400000,0.000017
31.433333,-0.000002
31.466667,-0.000011
31.500000,-0.000007
31.533333,0.000012
31.566667,0.000038
31.600000,0.000061
31.633333,0.000073
31.666667,0.000065
31.700000,0.000039
31.733333,0.000003
31.766667,-0.000033
31.800000,-0.000056
31.833333,-0.000058
31.866667,-0.000041
31.900000,-0.000012
31.933333,0.000016
31.966667,0.000033
32.000000,0.000028
32.033333,0.000003
32.066667,-0.000034
32.100000,-0.000071
32.133333,-0.000095
32.166667,-0.000096
32.200000,-0.000073
32.233333,-0.000033
32.266667,0.000011
32.300000,0.000045
32.333333,0.000058
32.366667,0.000047
32.400000,0.000019
32.433333,-0.000015
32.466667,-0.000041
32.500000,-0.000049
32.533333,-0.000034
32.566667,-0.000002
32.600000,0.000037
32.633333,0.000070
32.666667,0.000086
32.700000,0.000082
32.733333,0.000063
32.766667,0.000036
32.800000,0.000013
32.833333,-0.000002
32.866667,-0.000005
32.900000,0.000001
32.933333,0.000011
32.966667,0.000017
33.000000,0.000015
33.033333,0.000003
33.066667,-0.000015
33.100000,-0.000031
33.133333,-0.000041
33.166667,-0.000039
33.200000,-0.000025
33.233333,-0.000004
33.266667,0.000017
33.300000,0.000029
33.333333,0.000027
33.366667,0.000009
33.400000,-0.000017
33.433333,-0.000043
33.466667,-0.000059
33.500000,-0.000060
33.533333,-0.000046
33.566667,-0.000021
33.600000,0.000006
33.633333,0.000026
33.666667,0.000031
33.700000,0.000021
33.733333,0.000000
33.766667,-0.000024
33.800000,-0.000043
33.833333,-0.000051
33.866667,-0.000048
33.900000,-0.000034
33.933333,-0.000016
33.966667,0.000001
34.000000,0.000014
34.033333,0.000024
34.066667,0.000033
34.100000,0.000047
34.133333,0.000067
34.166667,0.000090
34.200000,0.000110
34.233333,0.000119
34.266667,0.000108
34.300000,0.000074
34.333333,0.000017
34.366667,-0.000053
34.400000,-0.000119
34.433333,-0.000165
34.466667,-0.000177
34.500000,-0.000151
34.533333,-0.000093
34.566667,-0.000018
34.600000,0.000055
34.633333,0.000108
