Time_Sec,Amplitude
0.000000,0.000004
0.033333,-0.000142
0.066667,-0.000275
0.100000,-0.000384
0.133333,-0.000462
0.166667,-0.000503
0.200000,-0.000503
0.233333,-0.000463
0.266667,-0.000389
0.300000,-0.000296
0.333333,-0.000199
0.366667,-0.000112
0.400000,-0.000044
0.433333,0.000002
0.466667,0.000029
0.500000,0.000044
0.533333,0.000054
0.566667,0.000065
0.600000,0.000077
0.633333,0.000087
0.666667,0.000092
0.700000,0.000088
0.733333,0.000077
0.766667,0.000060
0.800000,0.000039
0.833333,0.000017
0.866667,-0.000007
0.900000,-0.000033
0.933333,-0.000059
0.966667,-0.000083
1.000000,-0.000097
1.033333,-0.000091
1.066667,-0.000057
1.100000,0.000012
1.133333,0.000116
1.166667,0.000243
1.200000,0.000372
1.233333,0.000472
1.266667,0.000510
1.300000,0.000466
1.333333,0.000340
1.366667,0.000157
1.400000,-0.000041
1.433333,-0.000209
1.466667,-0.000312
1.500000,-0.000335
1.533333,-0.000284
1.566667,-0.000186
1.600000,-0.000078
1.633333,0.000003
1.666667,0.000033
1.700000,0.000001
1.733333,-0.000079
1.766667,-0.000180
1.800000,-0.000270
1.833333,-0.000320
1.866667,-0.000313
1.900000,-0.000248
1.933333,-0.000141
1.966667,-0.000019
2.000000,0.000086
2.033333,0.000149
2.066667,0.000162
2.100000,0.000132
2.133333,0.000080
2.166667,0.000029
2.200000,0.000003
2.233333,0.000012
2.266667,0.000053
2.300000,0.000111
2.333333,0.000165
2.366667,0.000196
2.400000,0.000194
2.433333,0.000159
2.466667,0.000098
2.500000,0.000026
2.533333,-0.000043
2.566667,-0.000094
2.600000,-0.000118
2.633333,-0.000116
2.666667,-0.000093
2.700000,-0.000059
2.733333,-0.000026
2.766667,-0.000006
2.800000,-0.000002
2.833333,-0.000013
2.866667,-0.000028
2.900000,-0.000038
2.933333,-0.000036
2.966667,-0.000024
3.000000,-0.000007
3.033333,0.000008
3.066667,0.000018
3.100000,0.000023
3.133333,0.000027
3.166667,0.000035
3.200000,0.000050
3.233333,0.000070
3.266667,0.000090
3.300000,0.000101
3.333333,0.000093
3.366667,0.000062
3.400000,0.000012
3.433333,-0.000044
3.466667,-0.000092
3.500000,-0.000118
3.533333,-0.000117
3.566667,-0.000091
3.600000,-0.000054
3.633333,-0.000019
3.666667,0.000001
3.700000,0.000004
3.733333,-0.000005
3.766667,-0.000012
3.800000,-0.000006
3.833333,0.000020
3.866667,0.000060
3.900000,0.000101
3.933333,0.000122
3.966667,0.000108
4.000000,0.000049
4.033333,-0.000047
4.066667,-0.000161
4.100000,-0.000264
4.133333,-0.000328
4.166667,-0.000331
4.200000,-0.000268
4.233333,-0.000146
4.266667,0.000008
4.300000,0.000164
4.333333,0.000289
4.366667,0.000364
4.400000,0.000381
4.433333,0.000348
4.466667,0.000280
4.500000,0.000198
4.533333,0.000116
4.566667,0.000047
4.600000,-0.000007
4.633333,-0.000050
4.666667,-0.000087
4.700000,-0.000122
4.733333,-0.000154
4.766667,-0.000178
4.800000,-0.000188
4.833333,-0.000178
4.866667,-0.000150
4.900000,-0.000109
4.933333,-0.000066
4.966667,-0.000033
5.000000,-0.000018
5.033333,-0.000022
5.066667,-0.000037
5.100000,-0.000052
5.133333,-0.000056
5.166667,-0.000040
5.200000,-0.000002
5.233333,0.000049
5.266667,0.000103
5.300000,0.000144
5.333333,0.000163
5.366667,0.000157
5.400000,0.000129
5.433333,0.000088
5.466667,0.000042
5.500000,-0.000001
5.533333,-0.000038
5.566667,-0.000067
5.600000,-0.000090
5.633333,-0.000106
5.666667,-0.000116
5.700000,-0.000116
5.733333,-0.000100
5.766667,-0.000064
5.800000,-0.000009
5.833333,0.000060
5.866667,0.000132
5.900000,0.000193
5.933333,0.000225
5.966667,0.000220
6.000000,0.000174
6.033333,0.000097
6.066667,0.000007
6.100000,-0.000074
6.133333,-0.000132
6.166667,-0.000158
6.200000,-0.000154
6.233333,-0.000130
6.266667,-0.000098
6.300000,-0.000073
6.333333,-0.000061
6.366667,-0.000059
6.400000,-0.000059
6.433333,-0.000048
6.466667,-0.000017
6.500000,0.000033
6.533333,0.000092
6.566667,0.000144
6.600000,0.000168
6.633333,0.000150
6.666667,0.000086
6.700000,-0.000011
6.733333,-0.000119
6.766667,-0.000210
6.800000,-0.000261
6.833333,-0.000260
6.866667,-0.000208
6.900000,-0.000117
6.933333,-0.000008
6.966667,0.000097
7.000000,0.000181
7.033333,0.000234
7.066667,0.000256
7.100000,0.000251
7.133333,0.000225
7.166667,0.000183
7.200000,0.000129
7.233333,0.000065
7.266667,-0.000006
7.300000,-0.000079
7.333333,-0.000148
7.366667,-0.000201
7.400000,-0.000225
7.433333,-0.000212
7.466667,-0.000159
7.500000,-0.000074
7.533333,0.000025
7.566667,0.000117
7.600000,0.000177
7.633333,0.000191
7.666667,0.000153
7.700000,0.000073
7.733333,-0.000027
7.766667,-0.000120
7.800000,-0.000183
7.833333,-0.000201
7.866667,-0.000172
7.900000,-0.000107
7.933333,-0.000026
7.966667,0.000048
8.000000,0.000098
8.033333,0.000114
8.066667,0.000100
8.100000,0.000067
8.133333,0.000033
8.166667,0.000010
8.200000,0.000005
8.233333,0.000016
8.266667,0.000035
8.300000,0.000049
8.333333,0.000050
8.366667,0.000033
8.400000,0.000004
8.433333,-0.000028
8.466667,-0.000053
8.500000,-0.000063
8.533333,-0.000055
8.566667,-0.000033
8.600000,-0.000007
8.633333,0.000013
8.666667,0.000019
8.700000,0.000010
8.733333,-0.000011
8.766667,-0.000034
8.800000,-0.000047
8.833333,-0.000045
8.866667,-0.000027
8.900000,0.000001
8.933333,0.000029
8.966667,0.000046
9.000000,0.000045
9.033333,0.000026
9.066667,-0.000004
9.100000,-0.000033
9.133333,-0.000052
9.166667,-0.000052
9.200000,-0.000032
9.233333,0.000002
9.266667,0.000040
9.300000,0.000070
9.333333,0.000082
9.366667,0.000073
9.400000,0.000046
9.433333,0.000013
9.466667,-0.000017
9.500000,-0.000035
9.533333,-0.000035
9.566667,-0.000021
9.600000,-0.000001
9.633333,0.000015
9.666667,0.000020
9.700000,0.000012
9.733333,-0.000006
9.766667,-0.000025
9.800000,-0.000036
9.833333,-0.000033
9.866667,-0.000014
9.900000,0.000013
9.933333,0.000039
9.966667,0.000054
10.000000,0.000051
10.033333,0.000028
10.066667,-0.000008
10.100000,-0.000045
10.133333,-0.000072
10.166667,-0.000081
10.200000,-0.000069
10.233333,-0.000043
10.266667,-0.000011
10.300000,0.000014
10.333333,0.000024
10.366667,0.000017
10.400000,-0.000001
10.433333,-0.000023
10.466667,-0.000036
10.500000,-0.000034
10.533333,-0.000015
10.566667,0.000017
10.600000,0.000054
10.633333,0.000083
10.666667,0.000096
10.700000,0.000089
10.733333,0.000067
10.766667,0.000038
10.800000,0.000010
10.833333,-0.000009
10.866667,-0.000015
10.900000,-0.000013
10.933333,-0.000009
10.966667,-0.000010
11.000000,-0.000022
11.033333,-0.000043
11.066667,-0.000069
11.100000,-0.000089
11.133333,-0.000096
11.166667,-0.000084
11.200000,-0.000055
11.233333,-0.000013
11.266667,0.000030
11.300000,0.000064
11.333333,0.000081
11.366667,0.000078
11.400000,0.000060
11.433333,0.000037
11.466667,0.000018
11.500000,0.000009
11.533333,0.000012
11.566667,0.000022
11.600000,0.000031
11.633333,0.000031
11.666667,0.000015
11.700000,-0.000015
11.733333,-0.000051
11.766667,-0.000082
11.800000,-0.000097
11.833333,-0.000092
11.866667,-0.000065
11.900000,-0.000026
11.933333,0.000016
11.966667,0.000048
12.000000,0.000062
12.033333,0.000057
12.066667,0.000039
12.100000,0.000017
12.133333,0.000002
12.166667,-0.000002
12.200000,0.000008
12.233333,0.000026
12.266667,0.000043
12.300000,0.000050
12.333333,0.000041
12.366667,0.000016
12.400000,-0.000016
12.433333,-0.000045
12.466667,-0.000062
12.500000,-0.000062
12.533333,-0.000046
12.566667,-0.000020
12.600000,0.000007
12.633333,0.000024
12.666667,0.000027
12.700000,0.000016
12.733333,-0.000004
12.766667,-0.000023
12.800000,-0.000033
12.833333,-0.000029
12.866667,-0.000012
12.900000,0.000012
12.933333,0.000034
12.966667,0.000044
13.000000,0.000036
13.033333,0.000012
13.066667,-0.000022
13.100000,-0.000054
13.133333,-0.000073
13.166667,-0.000072
13.200000,-0.000050
13.233333,-0.000014
13.266667,0.000024
13.300000,0.000051
13.333333,0.000060
13.366667,0.000051
13.400000,0.000032
13.433333,0.000015
13.466667,0.000011
13.500000,0.000025
13.533333,0.000052
13.566667,0.000081
13.600000,0.000098
13.633333,0.000089
13.666667,0.000050
13.700000,-0.000011
13.733333,-0.000080
13.766667,-0.000138
13.800000,-0.000167
13.833333,-0.000160
13.866667,-0.000117
13.900000,-0.000051
13.933333,0.000022
13.966667,0.000080
14.000000,0.000110
14.033333,0.000107
14.066667,0.000076
14.100000,0.000031
14.133333,-0.000013
14.166667,-0.000041
14.200000,-0.000046
14.233333,-0.000030
14.266667,-0.000004
14.300000,0.000021
14.333333,0.000032
14.366667,0.000026
14.400000,0.000006
14.433333,-0.000020
14.466667,-0.000042
14.500000,-0.000051
14.533333,-0.000044
14.566667,-0.000025
14.600000,0.000000
14.633333,0.000021
14.666667,0.000030
14.700000,0.000026
14.733333,0.000013
14.766667,-0.000002
14.800000,-0.000009
14.833333,-0.000005
14.866667,0.000011
14.900000,0.000032
14.933333,0.000051
14.966667,0.000059
15.000000,0.000052
15.033333,0.000031
15.066667,0.000003
15.100000,-0.000023
15.133333,-0.000039
15.166667,-0.000040
15.200000,-0.000030
15.233333,-0.000013
15.266667,-0.000000
15.300000,0.000001
15.333333,-0.000012
15.366667,-0.000035
15.400000,-0.000059
15.433333,-0.000073
15.466667,-0.000069
15.500000,-0.000045
15.533333,-0.000005
15.566667,0.000039
15.600000,0.000075
15.633333,0.000090
15.666667,0.000081
15.700000,0.000051
15.733333,0.000011
15.766667,-0.000027
15.800000,-0.000049
15.833333,-0.000049
15.866667,-0.000029
15.900000,0.000003
15.933333,0.000036
15.966667,0.000056
16.000000,0.000056
16.033333,0.000035
16.066667,0.000001
16.100000,-0.000033
16.133333,-0.000057
16.166667,-0.000061
16.200000,-0.000045
16.233333,-0.000013
16.266667,0.000024
16.300000,0.000053
16.333333,0.000066
16.366667,0.000060
16.400000,0.000039
16.433333,0.000012
16.466667,-0.000012
16.500000,-0.000028
16.533333,-0.000033
16.566667,-0.000031
16.600000,-0.000027
16.633333,-0.000028
16.666667,-0.000035
16.700000,-0.000048
16.733333,-0.000060
16.766667,-0.000063
16.800000,-0.000051
16.833333,-0.000023
16.866667,0.000017
16.900000,0.000060
16.933333,0.000094
16.966667,0.000108
17.000000,0.000098
17.033333,0.000065
17.066667,0.000019
17.100000,-0.000026
17.133333,-0.000058
17.166667,-0.000068
17.200000,-0.000055
17.233333,-0.000024
17.266667,0.000011
17.300000,0.000037
17.333333,0.000043
17.366667,0.000029
17.400000,-0.000002
17.433333,-0.000036
17.466667,-0.000061
17.500000,-0.000068
17.533333,-0.000055
17.566667,-0.000025
17.600000,0.000011
17.633333,0.000039
17.666667,0.000051
17.700000,0.000044
17.733333,0.000022
17.766667,-0.000003
17.800000,-0.000020
17.833333,-0.000020
17.866667,-0.000001
17.900000,0.000033
17.933333,0.000069
17.966667,0.000093
18.000000,0.000096
18.033333,0.000073
18.066667,0.000029
18.100000,-0.000023
18.133333,-0.000070
18.166667,-0.000098
18.200000,-0.000103
18.233333,-0.000086
18.266667,-0.000058
18.300000,-0.000029
18.333333,-0.000011
18.366667,-0.000010
18.400000,-0.000022
18.433333,-0.000040
18.466667,-0.000054
18.500000,-0.000055
18.533333,-0.000039
18.566667,-0.000009
18.600000,0.000027
18.633333,0.000057
18.666667,0.000074
18.700000,0.000075
18.733333,0.000064
18.766667,0.000050
18.800000,0.000042
18.833333,0.000046
18.866667,0.000061
18.900000,0.000082
18.933333,0.000097
18.966667,0.000094
19.000000,0.000067
19.033333,0.000018
19.066667,-0.000043
19.100000,-0.000101
19.133333,-0.000139
19.166667,-0.000148
19.200000,-0.000125
19.233333,-0.000078
19.266667,-0.000021
19.300000,0.000027
19.333333,0.000054
19.366667,0.000055
19.400000,0.000033
19.433333,0.000001
19.466667,-0.000029
19.500000,-0.000046
19.533333,-0.000045
19.566667,-0.000027
19.600000,-0.000003
19.633333,0.000019
19.666667,0.000028
19.700000,0.000022
19.733333,0.000004
19.766667,-0.000018
19.800000,-0.000034
19.833333,-0.000037
19.866667,-0.000024
19.900000,0.000000
19.933333,0.000027
19.966667,0.000046
20.000000,0.000051
20.033333,0.000041
20.066667,0.000021
20.100000,-0.000001
20.133333,-0.000013
20.166667,-0.000012
20.200000,0.000003
20.233333,0.000027
20.266667,0.000049
20.300000,0.000059
20.333333,0.000052
20.366667,0.000028
20.400000,-0.000005
20.433333,-0.000038
20.466667,-0.000058
20.500000,-0.000059
20.533333,-0.000040
20.566667,-0.000008
20.600000,0.000027
20.633333,0.000053
20.666667,0.000061
20.700000,0.000049
20.733333,0.000024
20.766667,-0.000006
20.800000,-0.000031
20.833333,-0.000045
20.866667,-0.000044
20.900000,-0.000034
20.933333,-0.000023
20.966667,-0.000020
21.000000,-0.000028
21.033333,-0.000048
21.066667,-0.000072
21.100000,-0.000091
21.133333,-0.000093
21.166667,-0.000076
21.200000,-0.000040
21.233333,0.000008
21.266667,0.000057
21.300000,0.000094
21.333333,0.000111
21.366667,0.000108
21.400000,0.000090
21.433333,0.000064
21.466667,0.000041
21.500000,0.000026
21.533333,0.000022
21.566667,0.000024
21.600000,0.000028
21.633333,0.000025
21.666667,0.000012
21.700000,-0.000010
21.733333,-0.000036
21.766667,-0.000058
21.800000,-0.000070
21.833333,-0.000067
21.866667,-0.000051
21.900000,-0.000028
21.933333,-0.000005
21.966667,0.000007
22.000000,0.000006
22.033333,-0.000007
22.066667,-0.000025
22.100000,-0.000038
22.133333,-0.000037
22.166667,-0.000019
22.200000,0.000013
22.233333,0.000049
22.266667,0.000079
22.300000,0.000091
22.333333,0.000080
22.366667,0.000048
22.400000,0.000004
22.433333,-0.000037
22.466667,-0.000064
22.500000,-0.000069
22.533333,-0.000052
22.566667,-0.000021
22.600000,0.000013
22.633333,0.000036
22.666667,0.000041
22.700000,0.000028
22.733333,0.000002
22.766667,-0.000025
22.800000,-0.000042
22.833333,-0.000043
22.866667,-0.000028
22.900000,-0.000004
22.933333,0.000021
22.966667,0.000035
23.000000,0.000031
23.033333,0.000012
23.066667,-0.000016
23.100000,-0.000042
23.133333,-0.000056
23.166667,-0.000051
23.200000,-0.000030
23.233333,0.000001
23.266667,0.000030
23.300000,0.000048
23.333333,0.000047
23.366667,0.000030
23.400000,0.000002
23.433333,-0.000025
23.466667,-0.000040
23.500000,-0.000036
23.533333,-0.000014
23.566667,0.000021
23.600000,0.000056
23.633333,0.000079
23.666667,0.000080
23.700000,0.000058
23.733333,0.000019
23.766667,-0.000025
23.800000,-0.000061
23.833333,-0.000081
23.866667,-0.000080
23.900000,-0.000060
23.933333,-0.000027
23.966667,0.000010
24.000000,0.000042
24.033333,0.000068
24.066667,0.000086
24.100000,0.000099
24.133333,0.000108
24.166667,0.000111
24.200000,0.000103
24.233333,0.000079
24.266667,0.000033
24.300000,-0.000032
24.333333,-0.000108
24.366667,-0.000177
24.400000,-0.000220
24.433333,-0.000224
24.466667,-0.000188
24.500000,-0.000121
24.533333,-0.000042
24.566667,0.000034
24.600000,0.000091
24.633333,0.000121
24.666667,0.000121
24.700000,0.000094
24.733333,0.000051
24.766667,0.000005
24.800000,-0.000033
24.833333,-0.000055
24.866667,-0.000058
24.900000,-0.000045
24.933333,-0.000023
24.966667,-0.000003
25.000000,0.000010
25.033333,0.000012
25.066667,0.000010
25.100000,0.000008
25.133333,0.000013
25.166667,0.000026
25.200000,0.000046
25.233333,0.000065
25.266667,0.000074
25.300000,0.000069
25.333333,0.000047
25.366667,0.000012
25.400000,-0.000025
25.433333,-0.000053
25.466667,-0.000062
25.500000,-0.000049
25.533333,-0.000014
25.566667,0.000030
25.600000,0.000071
25.633333,0.000093
25.666667,0.000090
25.700000,0.000062
25.733333,0.000017
25.766667,-0.000031
25.800000,-0.000067
25.833333,-0.000080
25.866667,-0.000065
25.900000,-0.000024
25.933333,0.000033
25.966667,0.000093
26.000000,0.000142
26.033333,0.000165
26.066667,0.000155
26.100000,0.000107
26.133333,0.000024
26.166667,-0.000082
26.200000,-0.000192
26.233333,-0.000285
26.266667,-0.000342
26.300000,-0.000353
26.333333,-0.000317
26.366667,-0.000243
26.400000,-0.000143
26.433333,-0.000036
26.466667,0.000065
26.500000,0.000146
26.533333,0.000198
26.566667,0.000217
26.600000,0.000204
26.633333,0.000164
26.666667,0.000107
26.700000,0.000047
26.733333,-0.000002
26.766667,-0.000028
26.800000,-0.000024
26.833333,0.000006
26.866667,0.000054
26.900000,0.000108
26.933333,0.000149
26.966667,0.000166
27.000000,0.000150
27.033333,0.000104
27.066667,0.000041
27.100000,-0.000022
27.133333,-0.000069
27.166667,-0.000088
27.200000,-0.000077
27.233333,-0.000046
27.266667,-0.000008
27.300000,0.000021
27.333333,0.000027
27.366667,0.000007
27.400000,-0.000033
27.433333,-0.000081
27.466667,-0.000124
27.500000,-0.000148
27.533333,-0.000149
27.566667,-0.000127
27.600000,-0.000089
27.633333,-0.000048
27.666667,-0.000014
27.700000,0.000009
27.733333,0.000020
27.766667,0.000024
27.800000,0.000028
27.833333,0.000037
27.866667,0.000053
27.900000,0.000071
27.933333,0.000085
27.966667,0.000087
28.000000,0.000074
28.033333,0.000047
28.066667,0.000012
28.100000,-0.000020
28.133333,-0.000043
28.166667,-0.000052
28.200000,-0.000048
28.233333,-0.000036
28.266667,-0.000024
28.300000,-0.000021
28.333333,-0.000028
28.366667,-0.000044
28.400000,-0.000060
28.433333,-0.000066
28.466667,-0.000053
28.500000,-0.000019
28.533333,0.000032
28.566667,0.000089
28.600000,0.000139
28.633333,0.000166
28.666667,0.000163
28.700000,0.000128
28.733333,0.000071
28.766667,0.000007
28.800000,-0.000048
28.833333,-0.000081
28.866667,-0.000084
28.900000,-0.000063
28.933333,-0.000027
28.966667,0.000009
29.000000,0.000032
29.033333,0.000035
29.066667,0.000021
29.100000,-0.000001
29.133333,-0.000023
29.166667,-0.000033
29.200000,-0.000030
29.233333,-0.000017
29.266667,-0.000003
29.300000,0.000001
29.333333,-0.000012
29.366667,-0.000040
29.400000,-0.000076
29.433333,-0.000104
29.466667,-0.000114
29.500000,-0.000099
29.533333,-0.000060
29.566667,-0.000008
29.600000,0.000043
29.633333,0.000079
29.666667,0.000089
29.700000,0.000076
29.733333,0.000046
29.766667,0.000014
29.800000,-0.000010
29.833333,-0.000016
29.866667,-0.000003
29.900000,0.000022
29.933333,0.000046
29.966667,0.000059
30.000000,0.000050
30.033333,0.000022
30.066667,-0.000018
30.100000,-0.000056
30.133333,-0.000079
30.166667,-0.000077
30.200000,-0.000051
30.233333,-0.000006
30.266667,0.000043
30.300000,0.000081
30.333333,0.000099
30.366667,0.000090
30.400000,0.000060
30.433333,0.000018
30.466667,-0.000022
30.500000,-0.000049
30.533333,-0.000056
30.566667,-0.000042
30.600000,-0.000017
30.633333,0.000009
30.666667,0.000024
30.700000,0.000024
30.733333,0.000011
30.766667,-0.000008
30.800000,-0.000024
30.833333,-0.000029
30.866667,-0.000022
30.900000,-0.000006
30.933333,0.000009
30.966667,0.000015
31.000000,0.000007
31.033333,-0.000012
31.066667,-0.000036
31.100000,-0.000053
31.133333,-0.000056
31.166667,-0.000039
31.200000,-0.000005
31.233333,0.000037
31.266667,0.000075
31.300000,0.000096
31.333333,0.000092
31.366667,0.000062
31.400000,0.000015
31.433333,-0.000037
31.466667,-0.000079
31.500000,-0.000100
31.533333,-0.000097
31.566667,-0.000075
31.600000,-0.000043
31.633333,-0.000014
31.666667,0.000005
31.700000,0.000009
31.733333,0.000003
31.766667,-0.000006
31.800000,-0.000009
31.833333,0.000001
31.866667,0.000025
31.900000,0.000057
31.933333,0.000089
31.966667,0.000108
32.000000,0.000108
32.033333,0.000086
32.066667,0.000048
32.100000,0.000006
32.133333,-0.000029
32.166667,-0.000047
32.200000,-0.000045
32.233333,-0.000029
32.266667,-0.000009
32.300000,0.000003
32.333333,-0.000002
32.366667,-0.000023
32.400000,-0.000054
32.433333,-0.000082
32.466667,-0.000095
32.500000,-0.000085
32.533333,-0.000053
32.566667,-0.000007
32.600000,0.000040
32.633333,0.000076
32.666667,0.000090
32.700000,0.000082
32.733333,0.000056
32.766667,0.000023
32.800000,-0.000005
32.833333,-0.000021
32.866667,-0.000023
32.900000,-0.000015
32.933333,-0.000005
32.966667,-0.000002
33.000000,-0.000012
33.033333,-0.000032
33.066667,-0.000055
33.100000,-0.000071
33.133333,-0.000071
33.166667,-0.000052
33.200000,-0.000015
33.233333,0.000031
33.266667,0.000073
33.300000,0.000100
33.333333,0.000103
33.366667,0.000082
33.400000,0.000045
33.433333,0.000003
33.466667,-0.000031
33.500000,-0.000049
33.533333,-0.000049
33.566667,-0.000035
33.600000,-0.000017
33.633333,-0.000002
33.666667,0.000001
33.700000,-0.000008
33.733333,-0.000022
33.766667,-0.000034
33.800000,-0.000033
33.833333,-0.000015
33.866667,0.000020
33.900000,0.000063
33.933333,0.000103
33.966667,0.000125
34.000000,0.000120
34.033333,0.000085
34.066667,0.000029
34.100000,-0.000034
34.133333,-0.000088
34.166667,-0.000119
34.200000,-0.000121
34.233333,-0.000098
34.266667,-0.000062
34.300000,-0.000026
34.333333,-0.000003
34.366667,0.000001
34.400000,-0.000009
34.433333,-0.000025
34.466667,-0.000035
34.500000,-0.000031
34.533333,-0.000012
34.566667,0.000018
34.600000,0.000047
