Time_Sec,Amplitude
0.000000,-0.033919
0.033333,0.405432
0.066667,0.606292
0.100000,0.434559
0.133333,-0.083786
0.166667,-0.777275
0.200000,-1.407321
0.233333,-1.771820
0.266667,-1.785674
0.300000,-1.505079
0.333333,-1.090450
0.366667,-0.728438
0.400000,-0.549122
0.433333,-0.575863
0.466667,-0.729132
0.500000,-0.876581
0.533333,-0.897661
0.566667,-0.728919
0.600000,-0.374302
0.633333,0.113146
0.666667,0.659964
0.700000,1.194267
0.733333,1.653988
0.766667,1.986026
0.800000,2.146650
0.833333,2.108890
0.866667,1.872876
0.900000,1.470521
0.933333,0.960463
0.966667,0.415758
1.000000,-0.091136
1.033333,-0.502326
1.066667,-0.784165
1.100000,-0.930272
1.133333,-0.957985
1.166667,-0.900315
1.200000,-0.795752
1.233333,-0.678214
1.266667,-0.569901
1.300000,-0.479112
1.333333,-0.402983
1.366667,-0.333277
1.400000,-0.262924
1.433333,-0.190777
1.466667,-0.122003
1.500000,-0.063690
1.533333,-0.018981
1.566667,0.015637
1.600000,0.048083
1.633333,0.085168
1.666667,0.126783
1.700000,0.162774
1.733333,0.175208
1.766667,0.146447
1.800000,0.069475
1.833333,-0.044957
1.866667,-0.167712
1.900000,-0.257331
1.933333,-0.271077
1.966667,-0.178021
2.000000,0.029623
2.033333,0.329739
2.066667,0.669247
2.100000,0.970324
2.133333,1.146804
2.166667,1.130191
2.200000,0.896560
2.233333,0.480929
2.266667,-0.029560
2.300000,-0.521852
2.333333,-0.892209
2.366667,-1.076582
2.400000,-1.064756
2.433333,-0.894768
2.466667,-0.633308
2.500000,-0.352162
2.533333,-0.108864
2.566667,0.064149
2.600000,0.160550
2.633333,0.192996
2.666667,0.182665
2.700000,0.150448
2.733333,0.111613
2.766667,0.073628
2.800000,0.037474
2.833333,0.002400
2.866667,-0.028663
2.900000,-0.046934
2.933333,-0.040057
2.966667,0.002699
3.000000,0.084281
3.033333,0.194976
3.066667,0.312143
3.100000,0.406393
3.133333,0.451488
3.166667,0.432555
3.200000,0.349322
3.233333,0.214295
3.266667,0.047063
3.300000,-0.132888
3.333333,-0.310635
3.366667,-0.474528
3.400000,-0.611014
3.433333,-0.700691
3.466667,-0.719022
3.500000,-0.641773
3.533333,-0.453619
3.566667,-0.157386
3.600000,0.219993
3.633333,0.628295
3.666667,1.001976
3.700000,1.272618
3.733333,1.382308
3.766667,1.294671
3.800000,1.001173
3.833333,0.522891
3.866667,-0.089730
3.900000,-0.758745
3.933333,-1.386225
3.966667,-1.870848
4.000000,-2.130173
4.033333,-2.119673
4.066667,-1.840625
4.100000,-1.334786
4.133333,-0.670024
4.166667,0.075095
4.200000,0.820392
4.233333,1.485546
4.266667,1.990195
4.300000,2.260746
4.333333,2.245558
4.366667,1.932906
4.400000,1.363635
4.433333,0.631673
4.466667,-0.131027
4.500000,-0.782412
4.533333,-1.203378
4.566667,-1.327541
4.600000,-1.160239
4.633333,-0.779251
4.666667,-0.312811
4.700000,0.100488
4.733333,0.355131
4.766667,0.407828
4.800000,0.282053
4.833333,0.049434
4.866667,-0.201791
4.900000,-0.397943
4.933333,-0.499689
4.966667,-0.505734
5.000000,-0.442897
5.033333,-0.349209
5.066667,-0.256989
5.100000,-0.181604
5.133333,-0.119543
5.166667,-0.055456
5.200000,0.026603
5.233333,0.133652
5.266667,0.259304
5.300000,0.384917
5.333333,0.485646
5.366667,0.539121
5.400000,0.532631
5.433333,0.465749
5.466667,0.349013
5.500000,0.201103
5.533333,0.045254
5.566667,-0.095434
5.600000,-0.202688
5.633333,-0.265874
5.666667,-0.282637
5.700000,-0.258240
5.733333,-0.203584
5.766667,-0.131873
5.800000,-0.055438
5.833333,0.015473
5.866667,0.072440
5.900000,0.108896
5.933333,0.120768
5.966667,0.106853
6.000000,0.069031
6.033333,0.012796
6.066667,-0.052860
6.100000,-0.117343
6.133333,-0.171278
6.166667,-0.208309
6.200000,-0.225532
6.233333,-0.223294
6.266667,-0.204129
6.300000,-0.170533
6.333333,-0.123119
6.366667,-0.061151
6.400000,0.014942
6.433333,0.101331
6.466667,0.190093
6.500000,0.270009
6.533333,0.328915
6.566667,0.357213
6.600000,0.350606
6.633333,0.310417
6.666667,0.242330
6.700000,0.155252
6.733333,0.060247
6.766667,-0.031309
6.800000,-0.109772
6.833333,-0.168328
6.866667,-0.203508
6.900000,-0.215913
6.933333,-0.210356
6.966667,-0.194320
7.000000,-0.175469
7.033333,-0.159715
7.066667,-0.149952
7.100000,-0.145063
7.133333,-0.140047
7.166667,-0.128195
7.200000,-0.104158
7.233333,-0.065914
7.266667,-0.015285
7.300000,0.042285
7.333333,0.098936
7.366667,0.146822
7.400000,0.180331
7.433333,0.196454
7.466667,0.193950
7.500000,0.173031
7.533333,0.135503
7.566667,0.084447
7.600000,0.023973
7.633333,-0.039806
7.666667,-0.097419
7.700000,-0.136018
7.733333,-0.140805
7.766667,-0.097359
7.800000,0.004048
7.833333,0.161546
7.866667,0.355495
7.900000,0.548588
7.933333,0.694404
7.966667,0.751049
8.000000,0.693744
8.033333,0.520501
8.066667,0.248218
8.100000,-0.097275
8.133333,-0.488583
8.166667,-0.895683
8.200000,-1.279897
8.233333,-1.591539
8.266667,-1.776036
8.300000,-1.786172
8.333333,-1.594699
8.366667,-1.202372
8.400000,-0.639141
8.433333,0.040284
8.466667,0.762893
8.500000,1.443404
8.533333,1.991193
8.566667,2.321294
8.600000,2.370283
8.633333,2.114135
8.666667,1.582300
8.700000,0.860581
8.733333,0.077473
8.766667,-0.624086
8.800000,-1.120740
8.833333,-1.338526
8.866667,-1.270719
8.900000,-0.977834
8.933333,-0.567696
8.966667,-0.161329
9.000000,0.142168
9.033333,0.288684
9.066667,0.274822
9.100000,0.138931
9.133333,-0.056814
9.166667,-0.247425
9.200000,-0.383129
9.233333,-0.439620
9.266667,-0.419157
9.300000,-0.344180
9.333333,-0.246191
9.366667,-0.153602
9.400000,-0.083184
9.433333,-0.038061
9.466667,-0.010999
9.500000,0.010511
9.533333,0.039472
9.566667,0.085352
9.600000,0.151412
9.633333,0.233974
9.666667,0.322931
9.700000,0.402769
9.733333,0.455071
9.766667,0.463382
9.800000,0.418678
9.833333,0.322577
9.866667,0.187541
9.900000,0.034830
9.933333,-0.109740
9.966667,-0.222129
10.000000,-0.286199
10.033333,-0.296777
10.066667,-0.259231
10.100000,-0.187030
10.133333,-0.098150
10.166667,-0.010789
10.200000,0.060131
10.233333,0.104362
10.266667,0.116550
10.300000,0.096830
10.333333,0.051250
10.366667,-0.009660
10.400000,-0.073987
10.433333,-0.131461
10.466667,-0.175632
10.500000,-0.205174
10.533333,-0.223282
10.566667,-0.234224
10.600000,-0.238731
10.633333,-0.231536
10.666667,-0.202617
10.700000,-0.141389
10.733333,-0.042464
10.766667,0.088981
10.800000,0.235355
10.833333,0.370453
10.866667,0.467371
10.900000,0.506653
10.933333,0.481838
10.966667,0.401036
11.000000,0.283614
11.033333,0.152861
11.066667,0.028437
11.100000,-0.077479
11.133333,-0.160009
11.166667,-0.219443
11.200000,-0.258508
11.233333,-0.279569
11.266667,-0.283248
11.300000,-0.269536
11.333333,-0.240046
11.366667,-0.198957
11.400000,-0.152178
11.433333,-0.105814
11.466667,-0.064486
11.500000,-0.029694
11.533333,0.000481
11.566667,0.029408
11.600000,0.059046
11.633333,0.088493
11.666667,0.114223
11.700000,0.130916
11.733333,0.132709
11.766667,0.115167
11.800000,0.076985
11.833333,0.020285
11.866667,-0.049604
11.900000,-0.123359
11.933333,-0.186548
11.966667,-0.220228
12.000000,-0.203835
12.033333,-0.119891
12.066667,0.039456
12.100000,0.264902
12.133333,0.525499
12.166667,0.771959
12.200000,0.948223
12.233333,1.006708
12.266667,0.921178
12.300000,0.692540
12.333333,0.345626
12.366667,-0.080299
12.400000,-0.540488
12.433333,-0.988201
12.466667,-1.374729
12.500000,-1.651640
12.533333,-1.777588
12.566667,-1.727047
12.600000,-1.496709
12.633333,-1.106688
12.666667,-0.596069
12.700000,-0.015194
12.733333,0.581030
12.766667,1.135860
12.800000,1.590529
12.833333,1.885322
12.866667,1.966178
12.900000,1.798777
12.933333,1.386975
12.966667,0.786388
13.000000,0.102624
13.033333,-0.529412
13.066667,-0.979473
13.100000,-1.158573
13.133333,-1.046846
13.166667,-0.701864
13.200000,-0.241279
13.233333,0.195728
13.266667,0.492721
13.300000,0.588037
13.333333,0.484705
13.366667,0.239225
13.400000,-0.063300
13.433333,-0.337943
13.466667,-0.523112
13.500000,-0.591932
13.533333,-0.551536
13.566667,-0.433922
13.600000,-0.282429
13.633333,-0.137672
13.666667,-0.027256
13.700000,0.037857
13.733333,0.061229
13.766667,0.056121
13.800000,0.039695
13.833333,0.026946
13.866667,0.026139
13.900000,0.037680
13.933333,0.056022
13.966667,0.072728
14.000000,0.079927
14.033333,0.074000
14.066667,0.057888
14.100000,0.040184
14.133333,0.031721
14.166667,0.041914
14.200000,0.075743
14.233333,0.131243
14.266667,0.198621
14.300000,0.262390
14.333333,0.305579
14.366667,0.313907
14.400000,0.279339
14.433333,0.203186
14.466667,0.097133
14.500000,-0.019733
14.533333,-0.126742
14.566667,-0.207150
14.600000,-0.251710
14.633333,-0.260302
14.666667,-0.240880
14.700000,-0.205310
14.733333,-0.164376
14.766667,-0.125345
14.800000,-0.092713
14.833333,-0.070038
14.866667,-0.061178
14.900000,-0.070207
14.933333,-0.098993
14.966667,-0.142549
15.000000,-0.185577
15.033333,-0.204670
15.066667,-0.176865
15.100000,-0.090664
15.133333,0.045633
15.166667,0.202584
15.200000,0.337840
15.233333,0.412228
15.266667,0.406129
15.300000,0.327213
15.333333,0.206062
15.366667,0.082955
15.400000,-0.007909
15.433333,-0.050385
15.466667,-0.049449
15.500000,-0.024417
15.533333,0.002721
15.566667,0.016757
15.600000,0.012915
15.633333,-0.004676
15.666667,-0.027583
15.700000,-0.048341
15.733333,-0.063573
15.766667,-0.073649
15.800000,-0.080720
15.833333,-0.087633
15.866667,-0.097454
15.900000,-0.111902
15.933333,-0.129076
15.966667,-0.142929
16.000000,-0.145809
16.033333,-0.133191
16.066667,-0.108549
16.100000,-0.085490
16.133333,-0.083855
16.166667,-0.119150
16.200000,-0.189789
16.233333,-0.269478
16.266667,-0.309985
16.300000,-0.255144
16.333333,-0.062894
16.366667,0.271872
16.400000,0.703892
16.433333,1.142002
16.466667,1.472401
16.500000,1.593164
16.533333,1.447560
16.566667,1.043102
16.600000,0.447707
16.633333,-0.234975
16.666667,-0.897701
16.700000,-1.453843
16.733333,-1.846909
16.766667,-2.048428
16.800000,-2.050868
16.833333,-1.860991
16.866667,-1.496488
16.900000,-0.986057
16.933333,-0.371060
16.966667,0.293384
17.000000,0.939273
17.033333,1.490080
17.066667,1.870525
17.100000,2.021328
17.133333,1.914378
17.166667,1.562662
17.200000,1.021992
17.233333,0.383745
17.266667,-0.241026
17.300000,-0.743362
17.333333,-1.039115
17.366667,-1.088104
17.400000,-0.905581
17.433333,-0.560637
17.466667,-0.157790
17.500000,0.194530
17.533333,0.416416
17.566667,0.476404
17.600000,0.392700
17.633333,0.218566
17.666667,0.019556
17.700000,-0.148761
17.733333,-0.255243
17.766667,-0.296345
17.800000,-0.289782
17.833333,-0.263188
17.866667,-0.241916
17.900000,-0.239451
17.933333,-0.253639
17.966667,-0.269834
18.000000,-0.268499
18.033333,-0.233225
18.066667,-0.156644
18.100000,-0.043279
18.133333,0.091360
18.166667,0.225215
18.200000,0.335447
18.233333,0.403121
18.266667,0.416408
18.300000,0.372997
18.333333,0.281091
18.366667,0.157887
18.400000,0.025979
18.433333,-0.090952
18.466667,-0.172766
18.500000,-0.207485
18.533333,-0.194047
18.566667,-0.141430
18.600000,-0.065077
18.633333,0.017135
18.666667,0.088542
18.700000,0.137212
18.733333,0.158425
18.766667,0.154735
18.800000,0.133754
18.833333,0.104922
18.866667,0.075832
18.900000,0.048860
18.933333,0.020356
18.966667,-0.016094
19.000000,-0.064359
19.033333,-0.122122
19.066667,-0.180475
19.100000,-0.225954
19.133333,-0.244398
19.166667,-0.226075
19.200000,-0.170123
19.233333,-0.086076
19.266667,0.007705
19.300000,0.087670
19.333333,0.130716
19.366667,0.121733
19.400000,0.060576
19.433333,-0.035337
19.466667,-0.134644
19.500000,-0.200946
19.533333,-0.204758
19.566667,-0.134774
19.600000,-0.003373
19.633333,0.156955
19.666667,0.304524
19.700000,0.401561
19.733333,0.425085
19.766667,0.372899
19.800000,0.262862
19.833333,0.125561
19.866667,-0.006187
19.900000,-0.106565
19.933333,-0.162502
19.966667,-0.175545
20.000000,-0.159339
20.033333,-0.133151
20.066667,-0.114324
20.100000,-0.113060
20.133333,-0.130408
20.166667,-0.158643
20.200000,-0.183918
20.233333,-0.191291
20.266667,-0.170495
20.300000,-0.120025
20.333333,-0.048644
20.366667,0.025656
20.400000,0.079914
20.433333,0.093879
20.466667,0.058717
20.500000,-0.016980
20.533333,-0.106029
20.566667,-0.167105
20.600000,-0.155402
20.633333,-0.038287
20.666667,0.189280
20.700000,0.496675
20.733333,0.821062
20.766667,1.081779
20.800000,1.201420
20.833333,1.126851
20.866667,0.842751
20.900000,0.374183
20.933333,-0.219137
20.966667,-0.852606
21.000000,-1.429899
21.033333,-1.860212
21.066667,-2.076391
21.100000,-2.047503
21.133333,-1.781283
21.166667,-1.316775
21.200000,-0.711568
21.233333,-0.029989
21.266667,0.662487
21.300000,1.298392
21.333333,1.806783
21.366667,2.118145
21.400000,2.177720
21.433333,1.963160
21.466667,1.499111
21.500000,0.860628
21.533333,0.160566
21.566667,-0.476275
21.600000,-0.943125
21.633333,-1.176170
21.666667,-1.168280
21.700000,-0.967386
21.733333,-0.658479
21.766667,-0.334986
21.800000,-0.071268
21.833333,0.093182
21.866667,0.154957
21.900000,0.137483
21.933333,0.077151
21.966667,0.009578
22.000000,-0.040195
22.033333,-0.061533
22.066667,-0.056917
22.100000,-0.037780
22.133333,-0.018852
22.166667,-0.012146
22.200000,-0.022834
22.233333,-0.048708
22.266667,-0.082229
22.300000,-0.113025
22.333333,-0.130302
22.366667,-0.125598
22.400000,-0.095098
22.433333,-0.040299
22.466667,0.032588
22.500000,0.113435
22.533333,0.189443
22.566667,0.247622
22.600000,0.277587
22.633333,0.273190
22.666667,0.233181
22.700000,0.161890
22.733333,0.069383
22.766667,-0.030151
22.800000,-0.121208
22.833333,-0.189480
22.866667,-0.223958
22.900000,-0.219248
22.933333,-0.177230
22.966667,-0.106573
23.000000,-0.020393
23.033333,0.066420
23.066667,0.139728
23.100000,0.188665
23.133333,0.207286
23.166667,0.194408
23.200000,0.152653
23.233333,0.088167
23.266667,0.010504
23.300000,-0.068747
23.333333,-0.138032
23.366667,-0.187075
23.400000,-0.207473
23.433333,-0.193995
23.466667,-0.146378
23.500000,-0.070243
23.533333,0.023147
23.566667,0.117829
23.600000,0.195376
23.633333,0.239028
23.666667,0.238235
23.700000,0.191138
23.733333,0.104472
23.766667,-0.008119
23.800000,-0.129110
23.833333,-0.241337
23.866667,-0.331472
23.900000,-0.390423
23.933333,-0.411176
23.966667,-0.387036
24.000000,-0.312398
24.033333,-0.186154
24.066667,-0.016611
24.100000,0.174674
24.133333,0.354080
24.166667,0.484197
24.200000,0.536151
24.233333,0.499863
24.266667,0.387927
24.300000,0.231995
24.333333,0.072659
24.366667,-0.053880
24.400000,-0.126627
24.433333,-0.143568
24.466667,-0.118512
24.500000,-0.074300
24.533333,-0.035059
24.566667,-0.019271
24.600000,-0.035851
24.633333,-0.084446
24.666667,-0.158082
24.700000,-0.244971
24.733333,-0.328605
24.766667,-0.387632
24.800000,-0.396982
24.833333,-0.331421
24.866667,-0.172819
24.900000,0.079479
24.933333,0.399921
24.966667,0.735991
25.000000,1.018125
25.033333,1.177357
25.066667,1.164306
25.100000,0.962352
25.133333,0.589925
25.166667,0.092732
25.200000,-0.467301
25.233333,-1.020261
25.266667,-1.494201
25.300000,-1.822953
25.333333,-1.956685
25.366667,-1.871454
25.400000,-1.573409
25.433333,-1.095933
25.466667,-0.491353
25.500000,0.178469
25.533333,0.847876
25.566667,1.448247
25.600000,1.908253
25.633333,2.159834
25.666667,2.151951
25.700000,1.868358
25.733333,1.342188
25.766667,0.659218
25.800000,-0.055654
25.833333,-0.666779
25.866667,-1.062020
25.900000,-1.182606
25.933333,-1.040150
25.966667,-0.714205
26.000000,-0.327785
26.033333,-0.007202
26.066667,0.158434
26.100000,0.141871
26.133333,-0.021175
26.166667,-0.251308
26.200000,-0.455795
26.233333,-0.559232
26.266667,-0.525111
26.300000,-0.362837
26.333333,-0.120295
26.366667,0.133896
26.400000,0.332936
26.433333,0.432692
26.466667,0.423634
26.500000,0.329347
26.533333,0.193477
26.566667,0.061868
26.600000,-0.032976
26.633333,-0.080060
26.666667,-0.088315
26.700000,-0.076922
26.733333,-0.063514
26.766667,-0.056665
26.800000,-0.054983
26.833333,-0.050996
26.866667,-0.036840
26.900000,-0.009035
26.933333,0.029900
26.966667,0.073325
27.000000,0.113552
27.033333,0.143685
27.066667,0.158239
27.100000,0.153727
27.133333,0.129151
27.166667,0.085749
27.200000,0.026669
27.233333,-0.042487
27.266667,-0.113095
27.300000,-0.174416
27.333333,-0.215700
27.366667,-0.228161
27.400000,-0.206690
27.433333,-0.151745
27.466667,-0.070513
27.500000,0.024066
27.533333,0.116113
27.566667,0.190034
27.600000,0.233676
27.633333,0.241272
27.666667,0.214876
27.700000,0.163051
27.733333,0.097921
27.766667,0.032470
27.800000,-0.021786
27.833333,-0.057534
27.866667,-0.073732
27.900000,-0.075216
27.933333,-0.070108
27.966667,-0.066808
28.000000,-0.071280
28.033333,-0.084608
28.066667,-0.101945
28.100000,-0.114323
28.133333,-0.112629
28.166667,-0.091704
28.200000,-0.053437
28.233333,-0.008284
28.266667,0.026470
28.300000,0.032896
28.333333,0.000856
28.366667,-0.065790
28.400000,-0.148231
28.433333,-0.217370
28.466667,-0.243091
28.500000,-0.205478
28.533333,-0.103249
28.566667,0.044803
28.600000,0.205645
28.633333,0.342207
28.666667,0.424636
28.700000,0.439336
28.733333,0.392024
28.766667,0.302928
28.800000,0.196805
28.833333,0.093038
28.866667,-0.000391
28.900000,-0.087388
28.933333,-0.178027
28.966667,-0.278275
29.000000,-0.380394
29.033333,-0.459751
29.066667,-0.480059
29.100000,-0.405232
29.133333,-0.214543
29.166667,0.083492
29.200000,0.444904
29.233333,0.796880
29.266667,1.056582
29.300000,1.155442
29.333333,1.059579
29.366667,0.778079
29.400000,0.355662
29.433333,-0.145388
29.466667,-0.662579
29.500000,-1.141100
29.533333,-1.533454
29.566667,-1.798123
29.600000,-1.901877
29.633333,-1.824607
29.666667,-1.563314
29.700000,-1.133032
29.733333,-0.564817
29.766667,0.096982
29.800000,0.795417
29.833333,1.459804
29.866667,2.007481
29.900000,2.353722
29.933333,2.430052
29.966667,2.205483
30.000000,1.702794
30.033333,1.002041
30.066667,0.226779
30.100000,-0.484147
30.133333,-1.009946
30.166667,-1.276580
30.200000,-1.273685
30.233333,-1.054454
30.266667,-0.716607
30.300000,-0.369987
30.333333,-0.103521
30.366667,0.035749
30.400000,0.046354
30.433333,-0.038144
30.466667,-0.167310
30.500000,-0.292733
30.533333,-0.381476
30.566667,-0.420391
30.600000,-0.412167
30.633333,-0.367202
30.666667,-0.295507
30.700000,-0.201726
30.733333,-0.085468
30.766667,0.053329
30.800000,0.207921
30.833333,0.362067
30.866667,0.492949
30.900000,0.577969
30.933333,0.602499
30.966667,0.565353
31.000000,0.478742
31.033333,0.362258
31.066667,0.234871
31.100000,0.109867
31.133333,-0.005896
31.166667,-0.110095
31.200000,-0.201887
31.233333,-0.278733
31.266667,-0.334918
31.300000,-0.363044
31.333333,-0.357152
31.366667,-0.315145
31.400000,-0.239846
31.433333,-0.139317
31.466667,-0.026232
31.500000,0.084163
31.533333,0.176691
31.566667,0.238285
31.600000,0.259811
31.633333,0.238265
31.666667,0.178203
31.700000,0.090790
31.733333,-0.008932
31.766667,-0.104905
31.800000,-0.182768
31.833333,-0.232789
31.866667,-0.251751
31.900000,-0.242238
31.933333,-0.209958
31.966667,-0.161110
32.000000,-0.100576
32.033333,-0.030746
32.066667,0.048368
32.100000,0.137013
32.133333,0.232628
32.166667,0.327653
32.200000,0.408660
32.233333,0.456964
32.266667,0.452417
32.300000,0.381262
32.333333,0.244636
32.366667,0.062084
32.400000,-0.132435
32.433333,-0.300164
32.466667,-0.409153
32.500000,-0.443914
32.533333,-0.409003
32.566667,-0.324789
32.600000,-0.218297
32.633333,-0.114529
32.666667,-0.031441
32.700000,0.021335
32.733333,0.040906
32.766667,0.028021
32.800000,-0.014910
32.833333,-0.082544
32.866667,-0.163274
32.900000,-0.237443
32.933333,-0.279479
32.966667,-0.264082
33.000000,-0.175243
33.033333,-0.015265
33.066667,0.191093
33.100000,0.401094
33.133333,0.566057
33.166667,0.645952
33.200000,0.621424
33.233333,0.499738
33.266667,0.312620
33.300000,0.106814
33.333333,-0.068247
33.366667,-0.171215
33.400000,-0.176959
33.433333,-0.082631
33.466667,0.089749
33.500000,0.296777
33.533333,0.483399
33.566667,0.595917
33.600000,0.594224
33.633333,0.459529
33.666667,0.195379
33.700000,-0.176230
33.733333,-0.618452
33.766667,-1.080268
33.800000,-1.498119
33.833333,-1.804075
33.866667,-1.940287
33.900000,-1.873172
33.933333,-1.600346
33.966667,-1.147621
34.000000,-0.558717
34.033333,0.115676
34.066667,0.822447
34.100000,1.502101
34.133333,2.082078
34.166667,2.477380
34.200000,2.605082
34.233333,2.410906
34.266667,1.897762
34.300000,1.141393
34.333333,0.281473
34.366667,-0.512021
34.400000,-1.085344
34.433333,-1.344358
34.466667,-1.280950
34.500000,-0.973065
34.533333,-0.556278
