Time_Sec,Amplitude
0.000000,0.000020
0.033333,-0.000196
0.066667,-0.000394
0.100000,-0.000553
0.133333,-0.000658
0.166667,-0.000699
0.200000,-0.000676
0.233333,-0.000597
0.266667,-0.000480
0.300000,-0.000349
0.333333,-0.000227
0.366667,-0.000126
0.400000,-0.000050
0.433333,0.000008
0.466667,0.000055
0.500000,0.000102
0.533333,0.000151
0.566667,0.000200
0.600000,0.000240
0.633333,0.000263
0.666667,0.000259
0.700000,0.000229
0.733333,0.000177
0.766667,0.000113
0.800000,0.000050
0.833333,-0.000001
0.866667,-0.000033
0.900000,-0.000044
0.933333,-0.000040
0.966667,-0.000027
1.000000,-0.000014
1.033333,-0.000005
1.066667,0.000001
1.100000,0.000008
1.133333,0.000021
1.166667,0.000042
1.200000,0.000066
1.233333,0.000085
1.266667,0.000091
1.300000,0.000079
1.333333,0.000049
1.366667,0.000009
1.400000,-0.000027
1.433333,-0.000050
1.466667,-0.000052
1.500000,-0.000033
1.533333,-0.000001
1.566667,0.000033
1.600000,0.000055
1.633333,0.000057
1.666667,0.000034
1.700000,-0.000009
1.733333,-0.000063
1.766667,-0.000114
1.800000,-0.000149
1.833333,-0.000160
1.866667,-0.000143
1.900000,-0.000105
1.933333,-0.000058
1.966667,-0.000018
2.000000,0.000006
2.033333,0.000009
2.066667,-0.000002
2.100000,-0.000018
2.133333,-0.000026
2.166667,-0.000020
2.200000,0.000001
2.233333,0.000031
2.266667,0.000059
2.300000,0.000072
2.333333,0.000065
2.366667,0.000039
2.400000,0.000004
2.433333,-0.000025
2.466667,-0.000035
2.500000,-0.000020
2.533333,0.000018
2.566667,0.000071
2.600000,0.000123
2.633333,0.000159
2.666667,0.000167
2.700000,0.000145
2.733333,0.000100
2.766667,0.000042
2.800000,-0.000015
2.833333,-0.000059
2.866667,-0.000085
2.900000,-0.000092
2.933333,-0.000084
2.966667,-0.000072
3.000000,-0.000061
3.033333,-0.000056
3.066667,-0.000054
3.100000,-0.000050
3.133333,-0.000039
3.166667,-0.000020
3.200000,0.000006
3.233333,0.000031
3.266667,0.000046
3.300000,0.000042
3.333333,0.000015
3.366667,-0.000031
3.400000,-0.000087
3.433333,-0.000137
3.466667,-0.000167
3.500000,-0.000168
3.533333,-0.000137
3.566667,-0.000077
3.600000,-0.000002
3.633333,0.000073
3.666667,0.000133
3.700000,0.000170
3.733333,0.000183
3.766667,0.000176
3.800000,0.000156
3.833333,0.000129
3.866667,0.000099
3.900000,0.000066
3.933333,0.000029
3.966667,-0.000011
4.000000,-0.000053
4.033333,-0.000088
4.066667,-0.000108
4.100000,-0.000101
4.133333,-0.000067
4.166667,-0.000008
4.200000,0.000060
4.233333,0.000118
4.266667,0.000148
4.300000,0.000134
4.333333,0.000076
4.366667,-0.000016
4.400000,-0.000120
4.433333,-0.000208
4.466667,-0.000257
4.500000,-0.000255
4.533333,-0.000202
4.566667,-0.000112
4.600000,-0.000009
4.633333,0.000082
4.666667,0.000143
4.700000,0.000163
4.733333,0.000147
4.766667,0.000107
4.800000,0.000057
4.833333,0.000013
4.866667,-0.000015
4.900000,-0.000024
4.933333,-0.000020
4.966667,-0.000012
5.000000,-0.000008
5.033333,-0.000010
5.066667,-0.000018
5.100000,-0.000025
5.133333,-0.000028
5.166667,-0.000025
5.200000,-0.000017
5.233333,-0.000008
5.266667,-0.000004
5.300000,-0.000007
5.333333,-0.000017
5.366667,-0.000029
5.400000,-0.000036
5.433333,-0.000029
5.466667,-0.000003
5.500000,0.000039
5.533333,0.000090
5.566667,0.000136
5.600000,0.000164
5.633333,0.000161
5.666667,0.000127
5.700000,0.000069
5.733333,0.000001
5.766667,-0.000060
5.800000,-0.000102
5.833333,-0.000118
5.866667,-0.000111
5.900000,-0.000091
5.933333,-0.000069
5.966667,-0.000057
6.000000,-0.000059
6.033333,-0.000074
6.066667,-0.000092
6.100000,-0.000103
6.133333,-0.000097
6.166667,-0.000071
6.200000,-0.000029
6.233333,0.000022
6.266667,0.000072
6.300000,0.000112
6.333333,0.000137
6.366667,0.000148
6.400000,0.000148
6.433333,0.000143
6.466667,0.000138
6.500000,0.000133
6.533333,0.000123
6.566667,0.000102
6.600000,0.000065
6.633333,0.000010
6.666667,-0.000058
6.700000,-0.000127
6.733333,-0.000182
6.766667,-0.000210
6.800000,-0.000207
6.833333,-0.000175
6.866667,-0.000125
6.900000,-0.000071
6.933333,-0.000027
6.966667,0.000001
7.000000,0.000010
7.033333,0.000007
7.066667,0.000002
7.100000,0.000004
7.133333,0.000017
7.166667,0.000037
7.200000,0.000056
7.233333,0.000063
7.266667,0.000050
7.300000,0.000013
7.333333,-0.000041
7.366667,-0.000095
7.400000,-0.000130
7.433333,-0.000129
7.466667,-0.000083
7.500000,0.000004
7.533333,0.000114
7.566667,0.000223
7.600000,0.000303
7.633333,0.000335
7.666667,0.000311
7.700000,0.000242
7.733333,0.000147
7.766667,0.000050
7.800000,-0.000027
7.833333,-0.000072
7.866667,-0.000085
7.900000,-0.000077
7.933333,-0.000064
7.966667,-0.000063
8.000000,-0.000088
8.033333,-0.000138
8.066667,-0.000205
8.100000,-0.000271
8.133333,-0.000314
8.166667,-0.000319
8.200000,-0.000277
8.233333,-0.000194
8.266667,-0.000086
8.300000,0.000027
8.333333,0.000122
8.366667,0.000184
8.400000,0.000209
8.433333,0.000199
8.466667,0.000165
8.500000,0.000121
8.533333,0.000079
8.566667,0.000049
8.600000,0.000034
8.633333,0.000030
8.666667,0.000031
8.700000,0.000030
8.733333,0.000022
8.766667,0.000008
8.800000,-0.000010
8.833333,-0.000025
8.866667,-0.000031
8.900000,-0.000026
8.933333,-0.000014
8.966667,-0.000000
9.000000,0.000010
9.033333,0.000014
9.066667,0.000017
9.100000,0.000023
9.133333,0.000037
9.166667,0.000059
9.200000,0.000084
9.233333,0.000102
9.266667,0.000103
9.300000,0.000079
9.333333,0.000031
9.366667,-0.000034
9.400000,-0.000103
9.433333,-0.000157
9.466667,-0.000184
9.500000,-0.000178
9.533333,-0.000140
9.566667,-0.000081
9.600000,-0.000018
9.633333,0.000030
9.666667,0.000052
9.700000,0.000043
9.733333,0.000011
9.766667,-0.000028
9.800000,-0.000057
9.833333,-0.000062
9.866667,-0.000038
9.900000,0.000009
9.933333,0.000065
9.966667,0.000111
10.000000,0.000133
10.033333,0.000124
10.066667,0.000088
10.100000,0.000038
10.133333,-0.000010
10.166667,-0.000045
10.200000,-0.000058
10.233333,-0.000051
10.266667,-0.000030
10.300000,-0.000008
10.333333,0.000007
10.366667,0.000009
10.400000,-0.000003
10.433333,-0.000026
10.466667,-0.000051
10.500000,-0.000072
10.533333,-0.000081
10.566667,-0.000075
10.600000,-0.000055
10.633333,-0.000023
10.666667,0.000013
10.700000,0.000052
10.733333,0.000090
10.766667,0.000124
10.800000,0.000153
10.833333,0.000171
10.866667,0.000173
10.900000,0.000156
10.933333,0.000116
10.966667,0.000052
11.000000,-0.000029
11.033333,-0.000117
11.066667,-0.000194
11.100000,-0.000246
11.133333,-0.000261
11.166667,-0.000234
11.200000,-0.000172
11.233333,-0.000088
11.266667,-0.000002
11.300000,0.000069
11.333333,0.000113
11.366667,0.000127
11.400000,0.000118
11.433333,0.000097
11.466667,0.000077
11.500000,0.000065
11.533333,0.000062
11.566667,0.000064
11.600000,0.000061
11.633333,0.000046
11.666667,0.000014
11.700000,-0.000032
11.733333,-0.000081
11.766667,-0.000120
11.800000,-0.000138
11.833333,-0.000128
11.866667,-0.000091
11.900000,-0.000036
11.933333,0.000024
11.966667,0.000075
12.000000,0.000107
12.033333,0.000118
12.066667,0.000110
12.100000,0.000093
12.133333,0.000073
12.166667,0.000055
12.200000,0.000038
12.233333,0.000018
12.266667,-0.000011
12.300000,-0.000051
12.333333,-0.000099
12.366667,-0.000143
12.400000,-0.000169
12.433333,-0.000164
12.466667,-0.000124
12.500000,-0.000057
12.533333,0.000022
12.566667,0.000092
12.600000,0.000130
12.633333,0.000127
12.666667,0.000082
12.700000,0.000009
12.733333,-0.000069
12.766667,-0.000128
12.800000,-0.000153
12.833333,-0.000138
12.866667,-0.000091
12.900000,-0.000025
12.933333,0.000043
12.966667,0.000097
13.000000,0.000130
13.033333,0.000140
13.066667,0.000134
13.100000,0.000121
13.133333,0.000111
13.166667,0.000108
13.200000,0.000112
13.233333,0.000116
13.266667,0.000112
13.300000,0.000090
13.333333,0.000046
13.366667,-0.000015
13.400000,-0.000083
13.433333,-0.000143
13.466667,-0.000182
13.500000,-0.000190
13.533333,-0.000166
13.566667,-0.000119
13.600000,-0.000063
13.633333,-0.000013
13.666667,0.000017
13.700000,0.000024
13.733333,0.000012
13.766667,-0.000008
13.800000,-0.000024
13.833333,-0.000026
13.866667,-0.000014
13.900000,0.000008
13.933333,0.000029
13.966667,0.000036
14.000000,0.000022
14.033333,-0.000014
14.066667,-0.000063
14.100000,-0.000113
14.133333,-0.000145
14.166667,-0.000150
14.200000,-0.000121
14.233333,-0.000064
14.266667,0.000011
14.300000,0.000090
14.333333,0.000156
14.366667,0.000200
14.400000,0.000218
14.433333,0.000213
14.466667,0.000190
14.500000,0.000157
14.533333,0.000121
14.566667,0.000084
14.600000,0.000046
14.633333,0.000006
14.666667,-0.000037
14.700000,-0.000077
14.733333,-0.000108
14.766667,-0.000122
14.800000,-0.000112
14.833333,-0.000080
14.866667,-0.000032
14.900000,0.000019
14.933333,0.000057
14.966667,0.000071
15.000000,0.000054
15.033333,0.000008
15.066667,-0.000055
15.100000,-0.000119
15.133333,-0.000168
15.166667,-0.000190
15.200000,-0.000181
15.233333,-0.000146
15.266667,-0.000093
15.300000,-0.000037
15.333333,0.000010
15.366667,0.000041
15.400000,0.000058
15.433333,0.000064
15.466667,0.000068
15.500000,0.000074
15.533333,0.000083
15.566667,0.000092
15.600000,0.000094
15.633333,0.000083
15.666667,0.000057
15.700000,0.000020
15.733333,-0.000018
15.766667,-0.000047
15.800000,-0.000056
15.833333,-0.000044
15.866667,-0.000014
15.900000,0.000024
15.933333,0.000057
15.966667,0.000074
16.000000,0.000071
16.033333,0.000050
16.066667,0.000020
16.100000,-0.000008
16.133333,-0.000025
16.166667,-0.000024
16.200000,-0.000009
16.233333,0.000014
16.266667,0.000033
16.300000,0.000036
16.333333,0.000017
16.366667,-0.000021
16.400000,-0.000068
16.433333,-0.000108
16.466667,-0.000124
16.500000,-0.000109
16.533333,-0.000061
16.566667,0.000007
16.600000,0.000078
16.633333,0.000131
16.666667,0.000151
16.700000,0.000134
16.733333,0.000084
16.766667,0.000017
16.800000,-0.000051
16.833333,-0.000106
16.866667,-0.000138
16.900000,-0.000147
16.933333,-0.000136
16.966667,-0.000114
17.000000,-0.000089
17.033333,-0.000063
17.066667,-0.000038
17.100000,-0.000010
17.133333,0.000021
17.166667,0.000056
17.200000,0.000089
17.233333,0.000112
17.266667,0.000118
17.300000,0.000103
17.333333,0.000069
17.366667,0.000022
17.400000,-0.000023
17.433333,-0.000051
17.466667,-0.000052
17.500000,-0.000020
17.533333,0.000038
17.566667,0.000108
17.600000,0.000171
17.633333,0.000208
17.666667,0.000204
17.700000,0.000159
17.733333,0.000079
17.766667,-0.000019
17.800000,-0.000114
17.833333,-0.000189
17.866667,-0.000232
17.900000,-0.000240
17.933333,-0.000219
17.966667,-0.000181
18.000000,-0.000140
18.033333,-0.000104
18.066667,-0.000074
18.100000,-0.000047
18.133333,-0.000019
18.166667,0.000016
18.200000,0.000056
18.233333,0.000097
18.266667,0.000131
18.300000,0.000149
18.333333,0.000143
18.366667,0.000113
18.400000,0.000066
18.433333,0.000013
18.466667,-0.000032
18.500000,-0.000056
18.533333,-0.000053
18.566667,-0.000027
18.600000,0.000014
18.633333,0.000057
18.666667,0.000087
18.700000,0.000099
18.733333,0.000092
18.766667,0.000071
18.800000,0.000045
18.833333,0.000021
18.866667,0.000005
18.900000,-0.000005
18.933333,-0.000010
18.966667,-0.000019
19.000000,-0.000034
19.033333,-0.000056
19.066667,-0.000082
19.100000,-0.000103
19.133333,-0.000114
19.166667,-0.000110
19.200000,-0.000090
19.233333,-0.000060
19.266667,-0.000026
19.300000,0.000003
19.333333,0.000021
19.366667,0.000027
19.400000,0.000024
19.433333,0.000018
19.466667,0.000014
19.500000,0.000015
19.533333,0.000021
19.566667,0.000028
19.600000,0.000031
19.633333,0.000023
19.666667,0.000004
19.700000,-0.000022
19.733333,-0.000046
19.766667,-0.000057
19.800000,-0.000048
19.833333,-0.000018
19.866667,0.000028
19.900000,0.000077
19.933333,0.000116
19.966667,0.000132
20.000000,0.000118
20.033333,0.000077
20.066667,0.000021
20.100000,-0.000035
20.133333,-0.000076
20.166667,-0.000093
20.200000,-0.000082
20.233333,-0.000050
20.266667,-0.000007
20.300000,0.000030
20.333333,0.000052
20.366667,0.000053
20.400000,0.000035
20.433333,0.000007
20.466667,-0.000021
20.500000,-0.000042
20.533333,-0.000051
20.566667,-0.000049
20.600000,-0.000042
20.633333,-0.000036
20.666667,-0.000034
20.700000,-0.000035
20.733333,-0.000035
20.766667,-0.000026
20.800000,-0.000004
20.833333,0.000027
20.866667,0.000062
20.900000,0.000090
20.933333,0.000101
20.966667,0.000088
21.000000,0.000051
21.033333,-0.000001
21.066667,-0.000052
21.100000,-0.000087
21.133333,-0.000094
21.166667,-0.000070
21.200000,-0.000020
21.233333,0.000039
21.266667,0.000090
21.300000,0.000113
21.333333,0.000100
21.366667,0.000055
21.400000,-0.000011
21.433333,-0.000075
21.466667,-0.000121
21.500000,-0.000135
21.533333,-0.000115
21.566667,-0.000071
21.600000,-0.000018
21.633333,0.000027
21.666667,0.000052
21.700000,0.000053
21.733333,0.000037
21.766667,0.000016
21.800000,0.000002
21.833333,0.000002
21.866667,0.000016
21.900000,0.000037
21.933333,0.000053
21.966667,0.000056
22.000000,0.000039
22.033333,0.000006
22.066667,-0.000031
22.100000,-0.000059
22.133333,-0.000065
22.166667,-0.000045
22.200000,-0.000004
22.233333,0.000046
22.266667,0.000086
22.300000,0.000101
22.333333,0.000084
22.366667,0.000036
22.400000,-0.000028
22.433333,-0.000088
22.466667,-0.000127
22.500000,-0.000133
22.533333,-0.000107
22.566667,-0.000057
22.600000,0.000001
22.633333,0.000049
22.666667,0.000076
22.700000,0.000077
22.733333,0.000058
22.766667,0.000031
22.800000,0.000010
22.833333,0.000004
22.866667,0.000016
22.900000,0.000041
22.933333,0.000069
22.966667,0.000084
23.000000,0.000076
23.033333,0.000042
23.066667,-0.000013
23.100000,-0.000076
23.133333,-0.000131
23.166667,-0.000163
23.200000,-0.000165
23.233333,-0.000137
23.266667,-0.000088
23.300000,-0.000029
23.333333,0.000025
23.366667,0.000068
23.400000,0.000095
23.433333,0.000108
23.466667,0.000112
23.500000,0.000108
23.533333,0.000096
23.566667,0.000075
23.600000,0.000042
23.633333,-0.000001
23.666667,-0.000051
23.700000,-0.000099
23.733333,-0.000131
23.766667,-0.000139
23.800000,-0.000116
23.833333,-0.000067
23.866667,-0.000002
23.900000,0.000063
23.933333,0.000110
23.966667,0.000128
24.000000,0.000112
24.033333,0.000068
24.066667,0.000010
24.100000,-0.000042
24.133333,-0.000074
24.166667,-0.000077
24.200000,-0.000052
24.233333,-0.000007
24.266667,0.000040
24.300000,0.000074
24.333333,0.000082
24.366667,0.000063
24.400000,0.000022
24.433333,-0.000026
24.466667,-0.000065
24.500000,-0.000084
24.533333,-0.000078
24.566667,-0.000051
24.600000,-0.000013
24.633333,0.000022
24.666667,0.000043
24.700000,0.000046
24.733333,0.000034
24.766667,0.000017
24.800000,0.000003
24.833333,0.000001
24.866667,0.000012
24.900000,0.000030
24.933333,0.000048
24.966667,0.000054
25.000000,0.000042
25.033333,0.000014
25.066667,-0.000024
25.100000,-0.000060
25.133333,-0.000084
25.166667,-0.000090
25.200000,-0.000081
25.233333,-0.000060
25.266667,-0.000039
25.300000,-0.000025
25.333333,-0.000023
25.366667,-0.000032
25.400000,-0.000044
25.433333,-0.000051
25.466667,-0.000044
25.500000,-0.000022
25.533333,0.000012
25.566667,0.000050
25.600000,0.000080
25.633333,0.000093
25.666667,0.000085
25.700000,0.000060
25.733333,0.000030
25.766667,0.000006
25.800000,-0.000001
25.833333,0.000010
25.866667,0.000035
25.900000,0.000066
25.933333,0.000089
25.966667,0.000095
26.000000,0.000079
26.033333,0.000046
26.066667,0.000005
26.100000,-0.000028
26.133333,-0.000042
26.166667,-0.000031
26.200000,0.000001
26.233333,0.000043
26.266667,0.000079
26.300000,0.000093
26.333333,0.000073
26.366667,0.000020
26.400000,-0.000056
26.433333,-0.000137
26.466667,-0.000203
26.500000,-0.000241
26.533333,-0.000242
26.566667,-0.000210
26.600000,-0.000157
26.633333,-0.000096
26.666667,-0.000040
26.700000,0.000004
26.733333,0.000036
26.766667,0.000062
26.800000,0.000086
26.833333,0.000113
26.866667,0.000142
26.900000,0.000166
26.933333,0.000177
26.966667,0.000166
27.000000,0.000129
27.033333,0.000070
27.066667,-0.000001
27.100000,-0.000068
27.133333,-0.000118
27.166667,-0.000139
27.200000,-0.000130
27.233333,-0.000097
27.266667,-0.000053
27.300000,-0.000013
27.333333,0.000012
27.366667,0.000021
27.400000,0.000018
27.433333,0.000015
27.466667,0.000020
27.500000,0.000038
27.533333,0.000067
27.566667,0.000100
27.600000,0.000123
27.633333,0.000127
27.666667,0.000106
27.700000,0.000060
27.733333,0.000000
27.766667,-0.000060
27.800000,-0.000107
27.833333,-0.000131
27.866667,-0.000129
27.900000,-0.000104
27.933333,-0.000066
27.966667,-0.000025
28.000000,0.000009
28.033333,0.000031
28.066667,0.000043
28.100000,0.000050
28.133333,0.000057
28.166667,0.000065
28.200000,0.000073
28.233333,0.000073
28.266667,0.000060
28.300000,0.000029
28.333333,-0.000019
28.366667,-0.000075
28.400000,-0.000126
28.433333,-0.000158
28.466667,-0.000161
28.500000,-0.000134
28.533333,-0.000081
28.566667,-0.000018
28.600000,0.000042
28.633333,0.000083
28.666667,0.000097
28.700000,0.000085
28.733333,0.000056
28.766667,0.000020
28.800000,-0.000010
28.833333,-0.000027
28.866667,-0.000031
28.900000,-0.000023
28.933333,-0.000009
28.966667,0.000002
29.000000,0.000006
29.033333,0.000002
29.066667,-0.000007
29.100000,-0.000018
29.133333,-0.000023
29.166667,-0.000018
29.200000,-0.000000
29.233333,0.000028
29.266667,0.000060
29.300000,0.000090
29.333333,0.000108
29.366667,0.000113
29.400000,0.000105
29.433333,0.000086
29.466667,0.000063
29.500000,0.000038
29.533333,0.000013
29.566667,-0.000012
29.600000,-0.000038
29.633333,-0.000066
29.666667,-0.000093
29.700000,-0.000113
29.733333,-0.000120
29.766667,-0.000106
29.800000,-0.000071
29.833333,-0.000022
29.866667,0.000031
29.900000,0.000073
29.933333,0.000092
29.966667,0.000079
30.000000,0.000035
30.033333,-0.000029
30.066667,-0.000098
30.100000,-0.000150
30.133333,-0.000172
30.166667,-0.000156
30.200000,-0.000106
30.233333,-0.000036
30.266667,0.000036
30.300000,0.000091
30.333333,0.000116
30.366667,0.000111
30.400000,0.000084
30.433333,0.000049
30.466667,0.000019
30.500000,0.000004
30.533333,0.000006
30.566667,0.000019
30.600000,0.000035
30.633333,0.000045
30.666667,0.000043
30.700000,0.000030
30.733333,0.000014
30.766667,0.000005
30.800000,0.000009
30.833333,0.000029
30.866667,0.000059
30.900000,0.000089
30.933333,0.000107
30.966667,0.000101
31.000000,0.000067
31.033333,0.000008
31.066667,-0.000063
31.100000,-0.000130
31.133333,-0.000178
31.166667,-0.000196
31.200000,-0.000182
31.233333,-0.000142
31.266667,-0.000089
31.300000,-0.000037
31.333333,0.000000
31.366667,0.000018
31.400000,0.000021
31.433333,0.000015
31.466667,0.000012
31.500000,0.000018
31.533333,0.000036
31.566667,0.000061
31.600000,0.000084
31.633333,0.000094
31.666667,0.000083
31.700000,0.000051
31.733333,0.000005
31.766667,-0.000039
31.800000,-0.000069
31.833333,-0.000074
31.866667,-0.000050
31.900000,-0.000006
31.933333,0.000047
31.966667,0.000091
32.000000,0.000113
32.033333,0.000107
32.066667,0.000075
32.100000,0.000029
32.133333,-0.000016
32.166667,-0.000046
32.200000,-0.000053
32.233333,-0.000037
32.266667,-0.000008
32.300000,0.000021
32.333333,0.000039
32.366667,0.000038
32.400000,0.000021
32.433333,-0.000006
32.466667,-0.000033
32.500000,-0.000052
32.533333,-0.000059
32.566667,-0.000057
32.600000,-0.000051
32.633333,-0.000047
32.666667,-0.000048
32.700000,-0.000056
32.733333,-0.000063
32.766667,-0.000065
32.800000,-0.000056
32.833333,-0.000035
32.866667,-0.000005
32.900000,0.000024
32.933333,0.000043
32.966667,0.000043
33.000000,0.000025
33.033333,-0.000007
33.066667,-0.000039
33.100000,-0.000058
33.133333,-0.000050
33.166667,-0.000013
33.200000,0.000046
33.233333,0.000114
33.266667,0.000172
33.300000,0.000203
33.333333,0.000195
33.366667,0.000151
33.400000,0.000084
33.433333,0.000013
33.466667,-0.000040
33.500000,-0.000060
33.533333,-0.000045
33.566667,-0.000005
33.600000,0.000039
33.633333,0.000064
33.666667,0.000055
33.700000,0.000008
33.733333,-0.000068
33.766667,-0.000152
33.800000,-0.000221
33.833333,-0.000255
33.866667,-0.000245
33.900000,-0.000196
33.933333,-0.000121
33.966667,-0.000040
34.000000,0.000028
34.033333,0.000070
34.066667,0.000085
34.100000,0.000076
34.133333,0.000054
34.166667,0.000030
34.200000,0.000015
34.233333,0.000012
34.266667,0.000021
34.300000,0.000038
34.333333,0.000057
34.366667,0.000075
34.400000,0.000090
34.433333,0.000100
34.466667,0.000106
34.500000,0.000105
34.533333,0.000096
34.566667,0.000077
34.600000,0.000046
34.633333,0.000006
34.666667,-0.000041
