Time_Sec,Amplitude
0.000000,0.000014
0.033333,-0.000199
0.066667,-0.000380
0.100000,-0.000501
0.133333,-0.000551
0.166667,-0.000531
0.200000,-0.000455
0.233333,-0.000345
0.266667,-0.000230
0.300000,-0.000133
0.333333,-0.000068
0.366667,-0.000037
0.400000,-0.000031
0.433333,-0.000037
0.466667,-0.000040
0.500000,-0.000030
0.533333,-0.000004
0.566667,0.000034
0.600000,0.000075
0.633333,0.000108
0.666667,0.000125
0.700000,0.000124
0.733333,0.000109
0.766667,0.000088
0.800000,0.000068
0.833333,0.000056
0.866667,0.000056
0.900000,0.000065
0.933333,0.000076
0.966667,0.000079
1.000000,0.000068
1.033333,0.000042
1.066667,0.000005
1.100000,-0.000033
1.133333,-0.000062
1.166667,-0.000074
1.200000,-0.000065
1.233333,-0.000039
1.266667,-0.000006
1.300000,0.000022
1.333333,0.000035
1.366667,0.000031
1.400000,0.000013
1.433333,-0.000010
1.466667,-0.000027
1.500000,-0.000030
1.533333,-0.000016
1.566667,0.000012
1.600000,0.000043
1.633333,0.000068
1.666667,0.000079
1.700000,0.000073
1.733333,0.000053
1.766667,0.000026
1.800000,-0.000000
1.833333,-0.000019
1.866667,-0.000027
1.900000,-0.000024
1.933333,-0.000018
1.966667,-0.000014
2.000000,-0.000020
2.033333,-0.000037
2.066667,-0.000059
2.100000,-0.000077
2.133333,-0.000081
2.166667,-0.000066
2.200000,-0.000034
2.233333,0.000005
2.266667,0.000038
2.300000,0.000051
2.333333,0.000038
2.366667,0.000002
2.400000,-0.000046
2.433333,-0.000089
2.466667,-0.000114
2.500000,-0.000110
2.533333,-0.000077
2.566667,-0.000024
2.600000,0.000034
2.633333,0.000083
2.666667,0.000110
2.700000,0.000113
2.733333,0.000097
2.766667,0.000070
2.800000,0.000045
2.833333,0.000029
2.866667,0.000025
2.900000,0.000029
2.933333,0.000033
2.966667,0.000026
3.000000,0.000005
3.033333,-0.000026
3.066667,-0.000059
3.100000,-0.000080
3.133333,-0.000081
3.166667,-0.000057
3.200000,-0.000013
3.233333,0.000039
3.266667,0.000085
3.300000,0.000110
3.333333,0.000106
3.366667,0.000071
3.400000,0.000013
3.433333,-0.000051
3.466667,-0.000107
3.500000,-0.000139
3.533333,-0.000140
3.566667,-0.000113
3.600000,-0.000067
3.633333,-0.000019
3.666667,0.000016
3.700000,0.000031
3.733333,0.000028
3.766667,0.000016
3.800000,0.000005
3.833333,0.000006
3.866667,0.000021
3.900000,0.000047
3.933333,0.000075
3.966667,0.000094
4.000000,0.000096
4.033333,0.000078
4.066667,0.000045
4.100000,0.000007
4.133333,-0.000025
4.166667,-0.000040
4.200000,-0.000036
4.233333,-0.000016
4.266667,0.000011
4.300000,0.000030
4.333333,0.000031
4.366667,0.000011
4.400000,-0.000024
4.433333,-0.000065
4.466667,-0.000098
4.500000,-0.000112
4.533333,-0.000105
4.566667,-0.000080
4.600000,-0.000047
4.633333,-0.000016
4.666667,0.000003
4.700000,0.000008
4.733333,0.000006
4.766667,0.000003
4.800000,0.000008
4.833333,0.000025
4.866667,0.000054
4.900000,0.000087
4.933333,0.000113
4.966667,0.000123
5.000000,0.000111
5.033333,0.000077
5.066667,0.000031
5.100000,-0.000016
5.133333,-0.000052
5.166667,-0.000070
5.200000,-0.000067
5.233333,-0.000048
5.266667,-0.000023
5.300000,-0.000001
5.333333,0.000009
5.366667,0.000005
5.400000,-0.000009
5.433333,-0.000025
5.466667,-0.000035
5.500000,-0.000034
5.533333,-0.000021
5.566667,0.000000
5.600000,0.000020
5.633333,0.000031
5.666667,0.000026
5.700000,0.000005
5.733333,-0.000024
5.766667,-0.000052
5.800000,-0.000067
5.833333,-0.000063
5.866667,-0.000038
5.900000,0.000001
5.933333,0.000042
5.966667,0.000073
6.000000,0.000082
6.033333,0.000069
6.066667,0.000037
6.100000,-0.000003
6.133333,-0.000037
6.166667,-0.000057
6.200000,-0.000058
6.233333,-0.000041
6.266667,-0.000014
6.300000,0.000013
6.333333,0.000033
6.366667,0.000042
6.400000,0.000041
6.433333,0.000036
6.466667,0.000032
6.500000,0.000033
6.533333,0.000037
6.566667,0.000042
6.600000,0.000041
6.633333,0.000027
6.666667,-0.000001
6.700000,-0.000037
6.733333,-0.000073
6.766667,-0.000098
6.800000,-0.000102
6.833333,-0.000083
6.866667,-0.000045
6.900000,0.000002
6.933333,0.000043
6.966667,0.000068
7.000000,0.000068
7.033333,0.000045
7.066667,0.000008
7.100000,-0.000031
7.133333,-0.000058
7.166667,-0.000064
7.200000,-0.000050
7.233333,-0.000019
7.266667,0.000017
7.300000,0.000046
7.333333,0.000059
7.366667,0.000054
7.400000,0.000035
7.433333,0.000012
7.466667,-0.000005
7.500000,-0.000010
7.533333,-0.000000
7.566667,0.000018
7.600000,0.000036
7.633333,0.000045
7.666667,0.000037
7.700000,0.000014
7.733333,-0.000020
7.766667,-0.000052
7.800000,-0.000074
7.833333,-0.000077
7.866667,-0.000062
7.900000,-0.000033
7.933333,-0.000002
7.966667,0.000020
8.000000,0.000024
8.033333,0.000010
8.066667,-0.000016
8.100000,-0.000041
8.133333,-0.000053
8.166667,-0.000046
8.200000,-0.000018
8.233333,0.000024
8.266667,0.000067
8.300000,0.000097
8.333333,0.000105
8.366667,0.000091
8.400000,0.000059
8.433333,0.000022
8.466667,-0.000008
8.500000,-0.000023
8.533333,-0.000020
8.566667,-0.000003
8.600000,0.000016
8.633333,0.000028
8.666667,0.000024
8.700000,0.000003
8.733333,-0.000029
8.766667,-0.000062
8.800000,-0.000083
8.833333,-0.000086
8.866667,-0.000068
8.900000,-0.000034
8.933333,0.000005
8.966667,0.000035
9.000000,0.000048
9.033333,0.000039
9.066667,0.000014
9.100000,-0.000017
9.133333,-0.000045
9.166667,-0.000061
9.200000,-0.000061
9.233333,-0.000046
9.266667,-0.000024
9.300000,-0.000000
9.333333,0.000018
9.366667,0.000029
9.400000,0.000035
9.433333,0.000039
9.466667,0.000044
9.500000,0.000051
9.533333,0.000060
9.566667,0.000066
9.600000,0.000065
9.633333,0.000053
9.666667,0.000030
9.700000,-0.000002
9.733333,-0.000035
9.766667,-0.000059
9.800000,-0.000068
9.833333,-0.000058
9.866667,-0.000032
9.900000,0.000001
9.933333,0.000031
9.966667,0.000046
10.000000,0.000039
10.033333,0.000009
10.066667,-0.000034
10.100000,-0.000079
10.133333,-0.000109
10.166667,-0.000116
10.200000,-0.000094
10.233333,-0.000048
10.266667,0.000010
10.300000,0.000066
10.333333,0.000108
10.366667,0.000128
10.400000,0.000126
10.433333,0.000107
10.466667,0.000081
10.500000,0.000056
10.533333,0.000036
10.566667,0.000021
10.600000,0.000006
10.633333,-0.000013
10.666667,-0.000042
10.700000,-0.000078
10.733333,-0.000115
10.766667,-0.000141
10.800000,-0.000150
10.833333,-0.000136
10.866667,-0.000102
10.900000,-0.000054
10.933333,-0.000006
10.966667,0.000033
11.000000,0.000055
11.033333,0.000058
11.066667,0.000051
11.100000,0.000043
11.133333,0.000042
11.166667,0.000052
11.200000,0.000073
11.233333,0.000097
11.266667,0.000113
11.300000,0.000112
11.333333,0.000089
11.366667,0.000047
11.400000,-0.000005
11.433333,-0.000054
11.466667,-0.000089
11.500000,-0.000101
11.533333,-0.000090
11.566667,-0.000062
11.600000,-0.000029
11.633333,-0.000004
11.666667,0.000004
11.700000,-0.000006
11.733333,-0.000030
11.766667,-0.000054
11.800000,-0.000068
11.833333,-0.000063
11.866667,-0.000038
11.900000,0.000003
11.933333,0.000048
11.966667,0.000084
12.000000,0.000103
12.033333,0.000101
12.066667,0.000082
12.100000,0.000054
12.133333,0.000026
12.166667,0.000006
12.200000,-0.000004
12.233333,-0.000008
12.266667,-0.000011
12.300000,-0.000021
12.333333,-0.000040
12.366667,-0.000066
12.400000,-0.000090
12.433333,-0.000104
12.466667,-0.000101
12.500000,-0.000077
12.533333,-0.000037
12.566667,0.000011
12.600000,0.000055
12.633333,0.000085
12.666667,0.000092
12.700000,0.000079
12.733333,0.000051
12.766667,0.000021
12.800000,-0.000003
12.833333,-0.000013
12.866667,-0.000009
12.900000,0.000004
12.933333,0.000019
12.966667,0.000025
13.000000,0.000019
13.033333,0.000001
13.066667,-0.000022
13.100000,-0.000042
13.133333,-0.000048
13.166667,-0.000036
13.200000,-0.000011
13.233333,0.000021
13.266667,0.000047
13.300000,0.000055
13.333333,0.000041
13.366667,0.000007
13.400000,-0.000035
13.433333,-0.000070
13.466667,-0.000085
13.500000,-0.000073
13.533333,-0.000036
13.566667,0.000015
13.600000,0.000063
13.633333,0.000092
13.666667,0.000092
13.700000,0.000064
13.733333,0.000017
13.766667,-0.000032
13.800000,-0.000066
13.833333,-0.000075
13.866667,-0.000056
13.900000,-0.000016
13.933333,0.000030
13.966667,0.000066
14.000000,0.000081
14.033333,0.000071
14.066667,0.000041
14.100000,0.000000
14.133333,-0.000038
14.166667,-0.000063
14.200000,-0.000071
14.233333,-0.000066
14.266667,-0.000053
14.300000,-0.000041
14.333333,-0.000037
14.366667,-0.000040
14.400000,-0.000045
14.433333,-0.000047
14.466667,-0.000037
14.500000,-0.000013
14.533333,0.000022
14.566667,0.000060
14.600000,0.000091
14.633333,0.000106
14.666667,0.000099
14.700000,0.000074
14.733333,0.000038
14.766667,0.000003
14.800000,-0.000019
14.833333,-0.000025
14.866667,-0.000014
14.900000,0.000007
14.933333,0.000026
14.966667,0.000035
15.000000,0.000026
15.033333,0.000002
15.066667,-0.000029
15.100000,-0.000056
15.133333,-0.000066
15.166667,-0.000055
15.200000,-0.000024
15.233333,0.000019
15.266667,0.000061
15.300000,0.000087
15.333333,0.000087
15.366667,0.000061
15.400000,0.000014
15.433333,-0.000040
15.466667,-0.000084
15.500000,-0.000108
15.533333,-0.000106
15.566667,-0.000082
15.600000,-0.000046
15.633333,-0.000012
15.666667,0.000008
15.700000,0.000010
15.733333,-0.000003
15.766667,-0.000023
15.800000,-0.000038
15.833333,-0.000039
15.866667,-0.000024
15.900000,0.000005
15.933333,0.000038
15.966667,0.000064
16.000000,0.000075
16.033333,0.000068
16.066667,0.000048
16.100000,0.000024
16.133333,0.000005
16.166667,-0.000001
16.200000,0.000008
16.233333,0.000028
16.266667,0.000051
16.300000,0.000065
16.333333,0.000063
16.366667,0.000045
16.400000,0.000014
16.433333,-0.000021
16.466667,-0.000049
16.500000,-0.000062
16.533333,-0.000057
16.566667,-0.000039
16.600000,-0.000015
16.633333,0.000001
16.666667,0.000001
16.700000,-0.000015
16.733333,-0.000041
16.766667,-0.000067
16.800000,-0.000080
16.833333,-0.000073
16.866667,-0.000045
16.900000,-0.000003
16.933333,0.000040
16.966667,0.000071
17.000000,0.000080
17.033333,0.000065
17.066667,0.000033
17.100000,-0.000002
17.133333,-0.000028
17.166667,-0.000034
17.200000,-0.000021
17.233333,0.000008
17.266667,0.000039
17.300000,0.000061
17.333333,0.000065
17.366667,0.000047
17.400000,0.000015
17.433333,-0.000022
17.466667,-0.000051
17.500000,-0.000064
17.533333,-0.000058
17.566667,-0.000037
17.600000,-0.000009
17.633333,0.000015
17.666667,0.000026
17.700000,0.000022
17.733333,0.000006
17.766667,-0.000015
17.800000,-0.000031
17.833333,-0.000038
17.866667,-0.000032
17.900000,-0.000017
17.933333,0.000001
17.966667,0.000016
18.000000,0.000021
18.033333,0.000019
18.066667,0.000012
18.100000,0.000007
18.133333,0.000009
18.166667,0.000020
18.200000,0.000037
18.233333,0.000052
18.266667,0.000059
18.300000,0.000052
18.333333,0.000028
18.366667,-0.000007
18.400000,-0.000042
18.433333,-0.000067
18.466667,-0.000073
18.500000,-0.000058
18.533333,-0.000026
18.566667,0.000012
18.600000,0.000043
18.633333,0.000058
18.666667,0.000051
18.700000,0.000026
18.733333,-0.000008
18.766667,-0.000037
18.800000,-0.000050
18.833333,-0.000043
18.866667,-0.000016
18.900000,0.000020
18.933333,0.000052
18.966667,0.000067
19.000000,0.000058
19.033333,0.000024
19.066667,-0.000026
19.100000,-0.000076
19.133333,-0.000114
19.166667,-0.000127
19.200000,-0.000114
19.233333,-0.000080
19.266667,-0.000035
19.300000,0.000008
19.333333,0.000039
19.366667,0.000056
19.400000,0.000059
19.433333,0.000057
19.466667,0.000056
19.500000,0.000060
19.533333,0.000069
19.566667,0.000078
19.600000,0.000081
19.633333,0.000071
19.666667,0.000045
19.700000,0.000007
19.733333,-0.000036
19.766667,-0.000071
19.800000,-0.000089
19.833333,-0.000085
19.866667,-0.000062
19.900000,-0.000027
19.933333,0.000007
19.966667,0.000030
20.000000,0.000033
20.033333,0.000018
20.066667,-0.000008
20.100000,-0.000034
20.133333,-0.000047
20.166667,-0.000041
20.200000,-0.000014
20.233333,0.000024
20.266667,0.000063
20.300000,0.000087
20.333333,0.000089
20.366667,0.000066
20.400000,0.000026
20.433333,-0.000019
20.466667,-0.000056
20.500000,-0.000074
20.533333,-0.000069
20.566667,-0.000045
20.600000,-0.000015
20.633333,0.000010
20.666667,0.000020
20.700000,0.000012
20.733333,-0.000010
20.766667,-0.000035
20.800000,-0.000052
20.833333,-0.000055
20.866667,-0.000040
20.900000,-0.000013
20.933333,0.000018
20.966667,0.000041
21.000000,0.000048
21.033333,0.000039
21.066667,0.000019
21.100000,-0.000003
21.133333,-0.000017
21.166667,-0.000016
21.200000,0.000001
21.233333,0.000028
21.266667,0.000056
21.300000,0.000075
21.333333,0.000076
21.366667,0.000057
21.400000,0.000023
21.433333,-0.000016
21.466667,-0.000051
21.500000,-0.000072
21.533333,-0.000074
21.566667,-0.000060
21.600000,-0.000035
21.633333,-0.000009
21.666667,0.000010
21.700000,0.000018
21.733333,0.000015
21.766667,0.000007
21.800000,0.000000
21.833333,0.000000
21.866667,0.000010
21.900000,0.000027
21.933333,0.000043
21.966667,0.000050
22.000000,0.000042
22.033333,0.000020
22.066667,-0.000012
22.100000,-0.000042
22.133333,-0.000061
22.166667,-0.000063
22.200000,-0.000047
22.233333,-0.000019
22.266667,0.000009
22.300000,0.000026
22.333333,0.000024
22.366667,0.000004
22.400000,-0.000026
22.433333,-0.000053
22.466667,-0.000064
22.500000,-0.000052
22.533333,-0.000017
22.566667,0.000031
22.600000,0.000078
22.633333,0.000107
22.666667,0.000110
22.700000,0.000084
22.733333,0.000038
22.766667,-0.000014
22.800000,-0.000055
22.833333,-0.000073
22.866667,-0.000065
22.900000,-0.000035
22.933333,0.000002
22.966667,0.000033
23.000000,0.000044
23.033333,0.000031
23.066667,-0.000002
23.100000,-0.000042
23.133333,-0.000075
23.166667,-0.000089
23.200000,-0.000077
23.233333,-0.000043
23.266667,0.000004
23.300000,0.000048
23.333333,0.000076
23.366667,0.000081
23.400000,0.000065
23.433333,0.000037
23.466667,0.000009
23.500000,-0.000008
23.533333,-0.000008
23.566667,0.000007
23.600000,0.000028
23.633333,0.000043
23.666667,0.000043
23.700000,0.000026
23.733333,-0.000005
23.766667,-0.000037
23.800000,-0.000060
23.833333,-0.000065
23.866667,-0.000051
23.900000,-0.000024
23.933333,0.000006
23.966667,0.000024
24.000000,0.000025
24.033333,0.000007
24.066667,-0.000024
24.100000,-0.000055
24.133333,-0.000073
24.166667,-0.000072
24.200000,-0.000049
24.233333,-0.000011
24.266667,0.000032
24.300000,0.000065
24.333333,0.000079
24.366667,0.000072
24.400000,0.000048
24.433333,0.000017
24.466667,-0.000009
24.500000,-0.000022
24.533333,-0.000018
24.566667,-0.000002
24.600000,0.000019
24.633333,0.000034
24.666667,0.000035
24.700000,0.000022
24.733333,0.000001
24.766667,-0.000020
24.800000,-0.000032
24.833333,-0.000030
24.866667,-0.000013
24.900000,0.000012
24.933333,0.000036
24.966667,0.000047
25.000000,0.000038
25.033333,0.000010
25.066667,-0.000030
25.100000,-0.000068
25.133333,-0.000093
25.166667,-0.000096
25.200000,-0.000075
25.233333,-0.000037
25.266667,0.000007
25.300000,0.000044
25.333333,0.000062
25.366667,0.000061
25.400000,0.000043
25.433333,0.000019
25.466667,-0.000001
25.500000,-0.000010
25.533333,-0.000007
25.566667,0.000004
25.600000,0.000016
25.633333,0.000020
25.666667,0.000013
25.700000,-0.000005
25.733333,-0.000026
25.766667,-0.000041
25.800000,-0.000042
25.833333,-0.000028
25.866667,-0.000001
25.900000,0.000031
25.933333,0.000057
25.966667,0.000070
26.000000,0.000066
26.033333,0.000046
26.066667,0.000018
26.100000,-0.000006
26.133333,-0.000020
26.166667,-0.000019
26.200000,-0.000007
26.233333,0.000010
26.266667,0.000020
26.300000,0.000016
26.333333,-0.000005
26.366667,-0.000039
26.400000,-0.000074
26.433333,-0.000098
26.466667,-0.000103
26.500000,-0.000085
26.533333,-0.000048
26.566667,-0.000001
26.600000,0.000042
26.633333,0.000071
26.666667,0.000078
26.700000,0.000062
26.733333,0.000031
26.766667,-0.000003
26.800000,-0.000028
26.833333,-0.000035
26.866667,-0.000022
26.900000,0.000006
26.933333,0.000039
26.966667,0.000065
27.000000,0.000074
27.033333,0.000062
27.066667,0.000033
27.100000,-0.000003
27.133333,-0.000037
27.166667,-0.000059
27.200000,-0.000067
27.233333,-0.000062
27.266667,-0.000049
27.300000,-0.000037
27.333333,-0.000030
27.366667,-0.000028
27.400000,-0.000027
27.433333,-0.000019
27.466667,-0.000000
27.500000,0.000031
27.533333,0.000071
27.566667,0.000108
27.600000,0.000131
27.633333,0.000129
27.666667,0.000099
27.700000,0.000046
27.733333,-0.000017
27.766667,-0.000074
27.800000,-0.000111
27.833333,-0.000119
27.866667,-0.000101
27.900000,-0.000063
27.933333,-0.000020
27.966667,0.000013
28.000000,0.000028
28.033333,0.000022
28.066667,0.000002
28.100000,-0.000021
28.133333,-0.000037
28.166667,-0.000036
28.200000,-0.000019
28.233333,0.000010
28.266667,0.000041
28.300000,0.000062
28.333333,0.000065
28.366667,0.000049
28.400000,0.000021
28.433333,-0.000010
28.466667,-0.000031
28.500000,-0.000035
28.533333,-0.000022
28.566667,0.000003
28.600000,0.000028
28.633333,0.000042
28.666667,0.000037
28.700000,0.000015
28.733333,-0.000018
28.766667,-0.000049
28.800000,-0.000066
28.833333,-0.000063
28.866667,-0.000040
28.900000,-0.000005
28.933333,0.000031
28.966667,0.000054
29.000000,0.000056
29.033333,0.000036
29.066667,0.000003
29.100000,-0.000031
29.133333,-0.000054
29.166667,-0.000056
29.200000,-0.000037
29.233333,-0.000004
29.266667,0.000031
29.300000,0.000054
29.333333,0.000057
29.366667,0.000039
29.400000,0.000008
29.433333,-0.000025
29.466667,-0.000047
29.500000,-0.000049
29.533333,-0.000030
29.566667,0.000005
29.600000,0.000042
29.633333,0.000070
29.666667,0.000077
29.700000,0.000061
29.733333,0.000028
29.766667,-0.000009
29.800000,-0.000040
29.833333,-0.000054
29.866667,-0.000049
29.900000,-0.000029
29.933333,-0.000002
29.966667,0.000019
30.000000,0.000026
30.033333,0.000016
30.066667,-0.000006
30.100000,-0.000031
30.133333,-0.000049
30.166667,-0.000052
30.200000,-0.000040
30.233333,-0.000015
30.266667,0.000012
30.300000,0.000032
30.333333,0.000037
30.366667,0.000027
30.400000,0.000007
30.433333,-0.000013
30.466667,-0.000026
30.500000,-0.000024
30.533333,-0.000009
30.566667,0.000014
30.600000,0.000034
30.633333,0.000042
30.666667,0.000031
30.700000,0.000003
30.733333,-0.000033
30.766667,-0.000065
30.800000,-0.000081
30.833333,-0.000075
30.866667,-0.000047
30.900000,-0.000004
30.933333,0.000043
30.966667,0.000080
31.000000,0.000099
31.033333,0.000098
31.066667,0.000079
31.100000,0.000051
31.133333,0.000024
31.166667,0.000005
31.200000,-0.000003
31.233333,-0.000001
31.266667,0.000004
31.300000,0.000006
31.333333,-0.000001
31.366667,-0.000019
31.400000,-0.000042
31.433333,-0.000063
31.466667,-0.000073
31.500000,-0.000068
31.533333,-0.000048
31.566667,-0.000020
31.600000,0.000006
31.633333,0.000021
31.666667,0.000020
31.700000,0.000002
31.733333,-0.000022
31.766667,-0.000042
31.800000,-0.000046
31.833333,-0.000031
31.866667,0.000003
31.900000,0.000044
31.933333,0.000080
31.966667,0.000095
32.000000,0.000082
32.033333,0.000043
32.066667,-0.000012
32.100000,-0.000067
32.133333,-0.000104
32.166667,-0.000112
32.200000,-0.000087
32.233333,-0.000038
32.266667,0.000023
32.300000,0.000075
32.333333,0.000106
32.366667,0.000108
32.400000,0.000085
32.433333,0.000048
32.466667,0.000010
32.500000,-0.000016
32.533333,-0.000026
32.566667,-0.000022
32.600000,-0.000011
32.633333,-0.000003
32.666667,-0.000004
32.700000,-0.000015
32.733333,-0.000031
32.766667,-0.000043
32.800000,-0.000042
32.833333,-0.000024
32.866667,0.000008
32.900000,0.000045
32.933333,0.000075
32.966667,0.000084
33.000000,0.000066
33.033333,0.000024
33.066667,-0.000032
33.100000,-0.000087
33.133333,-0.000124
33.166667,-0.000134
33.200000,-0.000115
33.233333,-0.000073
33.266667,-0.000022
33.300000,0.000023
33.333333,0.000052
33.366667,0.000060
33.400000,0.000051
33.433333,0.000034
33.466667,0.000018
33.500000,0.000012
33.533333,0.000018
33.566667,0.000034
33.600000,0.000052
33.633333,0.000063
33.666667,0.000061
33.700000,0.000044
33.733333,0.000018
33.766667,-0.000009
33.800000,-0.000026
33.833333,-0.000029
33.866667,-0.000018
33.900000,0.000003
33.933333,0.000023
33.966667,0.000032
34.000000,0.000023
34.033333,-0.000004
34.066667,-0.000039
34.100000,-0.000073
34.133333,-0.000092
34.166667,-0.000090
34.200000,-0.000067
34.233333,-0.000030
34.266667,0.000009
34.300000,0.000036
34.333333,0.000043
34.366667,0.000028
34.400000,-0.000002
34.433333,-0.000034
34.466667,-0.000056
34.500000,-0.000059
34.533333,-0.000040
34.566667,-0.000005
34.600000,0.000036
34.633333,0.000070
