Time_Sec,Amplitude
0.000000,0.000021
0.033333,-0.000314
0.066667,-0.000601
0.100000,-0.000801
0.133333,-0.000889
0.166667,-0.000862
0.200000,-0.000735
0.233333,-0.000542
0.266667,-0.000328
0.300000,-0.000134
0.333333,0.000009
0.366667,0.000087
0.400000,0.000107
0.433333,0.000086
0.466667,0.000049
0.500000,0.000016
0.533333,0.000002
0.566667,0.000010
0.600000,0.000033
0.633333,0.000063
0.666667,0.000088
0.700000,0.000103
0.733333,0.000110
0.766667,0.000112
0.800000,0.000115
0.833333,0.000123
0.866667,0.000132
0.900000,0.000139
0.933333,0.000135
0.966667,0.000112
1.000000,0.000069
1.033333,0.000011
1.066667,-0.000050
1.100000,-0.000100
1.133333,-0.000127
1.166667,-0.000125
1.200000,-0.000096
1.233333,-0.000051
1.266667,-0.000002
1.300000,0.000034
1.333333,0.000049
1.366667,0.000042
1.400000,0.000019
1.433333,-0.000008
1.466667,-0.000027
1.500000,-0.000030
1.533333,-0.000013
1.566667,0.000019
1.600000,0.000059
1.633333,0.000095
1.666667,0.000118
1.700000,0.000124
1.733333,0.000116
1.766667,0.000097
1.800000,0.000073
1.833333,0.000051
1.866667,0.000033
1.900000,0.000019
1.933333,0.000003
1.966667,-0.000022
2.000000,-0.000059
2.033333,-0.000107
2.066667,-0.000158
2.100000,-0.000200
2.133333,-0.000220
2.166667,-0.000213
2.200000,-0.000177
2.233333,-0.000121
2.266667,-0.000057
2.300000,-0.000001
2.333333,0.000037
2.366667,0.000051
2.400000,0.000047
2.433333,0.000033
2.466667,0.000022
2.500000,0.000022
2.533333,0.000033
2.566667,0.000053
2.600000,0.000070
2.633333,0.000075
2.666667,0.000063
2.700000,0.000037
2.733333,0.000005
2.766667,-0.000020
2.800000,-0.000026
2.833333,-0.000009
2.866667,0.000030
2.900000,0.000079
2.933333,0.000122
2.966667,0.000142
3.000000,0.000129
3.033333,0.000085
3.066667,0.000020
3.100000,-0.000046
3.133333,-0.000095
3.166667,-0.000115
3.200000,-0.000103
3.233333,-0.000065
3.266667,-0.000016
3.300000,0.000026
3.333333,0.000049
3.366667,0.000047
3.400000,0.000025
3.433333,-0.000006
3.466667,-0.000032
3.500000,-0.000044
3.533333,-0.000037
3.566667,-0.000018
3.600000,0.000005
3.633333,0.000018
3.666667,0.000014
3.700000,-0.000008
3.733333,-0.000039
3.766667,-0.000068
3.800000,-0.000081
3.833333,-0.000070
3.866667,-0.000036
3.900000,0.000013
3.933333,0.000060
3.966667,0.000090
4.000000,0.000089
4.033333,0.000057
4.066667,0.000000
4.100000,-0.000064
4.133333,-0.000115
4.166667,-0.000140
4.200000,-0.000130
4.233333,-0.000089
4.266667,-0.000027
4.300000,0.000037
4.333333,0.000090
4.366667,0.000122
4.400000,0.000129
4.433333,0.000116
4.466667,0.000091
4.500000,0.000061
4.533333,0.000034
4.566667,0.000011
4.600000,-0.000009
4.633333,-0.000030
4.666667,-0.000053
4.700000,-0.000077
4.733333,-0.000094
4.766667,-0.000096
4.800000,-0.000078
4.833333,-0.000038
4.866667,0.000019
4.900000,0.000084
4.933333,0.000140
4.966667,0.000175
5.000000,0.000177
5.033333,0.000145
5.066667,0.000085
5.100000,0.000012
5.133333,-0.000056
5.166667,-0.000107
5.200000,-0.000129
5.233333,-0.000124
5.266667,-0.000099
5.300000,-0.000065
5.333333,-0.000033
5.366667,-0.000010
5.400000,0.000002
5.433333,0.000006
5.466667,0.000006
5.500000,0.000004
5.533333,0.000003
5.566667,-0.000001
5.600000,-0.000011
5.633333,-0.000029
5.666667,-0.000055
5.700000,-0.000084
5.733333,-0.000108
5.766667,-0.000116
5.800000,-0.000101
5.833333,-0.000062
5.866667,-0.000003
5.900000,0.000063
5.933333,0.000122
5.966667,0.000159
6.000000,0.000167
6.033333,0.000146
6.066667,0.000103
6.100000,0.000053
6.133333,0.000009
6.166667,-0.000016
6.200000,-0.000019
6.233333,-0.000003
6.266667,0.000022
6.300000,0.000043
6.333333,0.000047
6.366667,0.000030
6.400000,-0.000004
6.433333,-0.000043
6.466667,-0.000075
6.500000,-0.000089
6.533333,-0.000079
6.566667,-0.000051
6.600000,-0.000015
6.633333,0.000014
6.666667,0.000026
6.700000,0.000016
6.733333,-0.000010
6.766667,-0.000042
6.800000,-0.000068
6.833333,-0.000078
6.866667,-0.000067
6.900000,-0.000039
6.933333,-0.000001
6.966667,0.000034
7.000000,0.000058
7.033333,0.000066
7.066667,0.000060
7.100000,0.000047
7.133333,0.000034
7.166667,0.000026
7.200000,0.000023
7.233333,0.000024
7.266667,0.000023
7.300000,0.000015
7.333333,-0.000003
7.366667,-0.000027
7.400000,-0.000048
7.433333,-0.000058
7.466667,-0.000049
7.500000,-0.000022
7.533333,0.000019
7.566667,0.000062
7.600000,0.000095
7.633333,0.000105
7.666667,0.000085
7.700000,0.000041
7.733333,-0.000018
7.766667,-0.000075
7.800000,-0.000115
7.833333,-0.000126
7.866667,-0.000109
7.900000,-0.000070
7.933333,-0.000026
7.966667,0.000008
8.000000,0.000020
8.033333,0.000008
8.066667,-0.000021
8.100000,-0.000054
8.133333,-0.000077
8.166667,-0.000077
8.200000,-0.000053
8.233333,-0.000007
8.266667,0.000048
8.300000,0.000098
8.333333,0.000131
8.366667,0.000142
8.400000,0.000132
8.433333,0.000109
8.466667,0.000081
8.500000,0.000057
8.533333,0.000040
8.566667,0.000030
8.600000,0.000021
8.633333,0.000006
8.666667,-0.000017
8.700000,-0.000047
8.733333,-0.000077
8.766667,-0.000098
8.800000,-0.000101
8.833333,-0.000083
8.866667,-0.000048
8.900000,-0.000006
8.933333,0.000029
8.966667,0.000045
9.000000,0.000036
9.033333,0.000003
9.066667,-0.000042
9.100000,-0.000084
9.133333,-0.000110
9.166667,-0.000111
9.200000,-0.000086
9.233333,-0.000042
9.266667,0.000006
9.300000,0.000046
9.333333,0.000066
9.366667,0.000064
9.400000,0.000047
9.433333,0.000024
9.466667,0.000007
9.500000,0.000004
9.533333,0.000016
9.566667,0.000040
9.600000,0.000064
9.633333,0.000078
9.666667,0.000076
9.700000,0.000056
9.733333,0.000026
9.766667,-0.000005
9.800000,-0.000027
9.833333,-0.000032
9.866667,-0.000022
9.900000,-0.000000
9.933333,0.000022
9.966667,0.000034
10.000000,0.000030
10.033333,0.000010
10.066667,-0.000018
10.100000,-0.000043
10.133333,-0.000057
10.166667,-0.000055
10.200000,-0.000040
10.233333,-0.000018
10.266667,-0.000003
10.300000,-0.000003
10.333333,-0.000024
10.366667,-0.000059
10.400000,-0.000098
10.433333,-0.000123
10.466667,-0.000120
10.500000,-0.000085
10.533333,-0.000019
10.566667,0.000064
10.600000,0.000145
10.633333,0.000203
10.666667,0.000221
10.700000,0.000196
10.733333,0.000135
10.766667,0.000054
10.800000,-0.000027
10.833333,-0.000089
10.866667,-0.000121
10.900000,-0.000123
10.933333,-0.000102
10.966667,-0.000073
11.000000,-0.000047
11.033333,-0.000032
11.066667,-0.000028
11.100000,-0.000030
11.133333,-0.000029
11.166667,-0.000019
11.200000,0.000001
11.233333,0.000030
11.266667,0.000058
11.300000,0.000078
11.333333,0.000081
11.366667,0.000067
11.400000,0.000042
11.433333,0.000014
11.466667,-0.000006
11.500000,-0.000012
11.533333,-0.000003
11.566667,0.000014
11.600000,0.000032
11.633333,0.000040
11.666667,0.000030
11.700000,0.000004
11.733333,-0.000033
11.766667,-0.000069
11.800000,-0.000093
11.833333,-0.000096
11.866667,-0.000077
11.900000,-0.000042
11.933333,-0.000002
11.966667,0.000032
12.000000,0.000047
12.033333,0.000042
12.066667,0.000021
12.100000,-0.000006
12.133333,-0.000027
12.166667,-0.000036
12.200000,-0.000028
12.233333,-0.000008
12.266667,0.000016
12.300000,0.000034
12.333333,0.000040
12.366667,0.000033
12.400000,0.000017
12.433333,0.000001
12.466667,-0.000007
12.500000,-0.000003
12.533333,0.000011
12.566667,0.000031
12.600000,0.000045
12.633333,0.000045
12.666667,0.000027
12.700000,-0.000005
12.733333,-0.000041
12.766667,-0.000069
12.800000,-0.000078
12.833333,-0.000063
12.866667,-0.000028
12.900000,0.000018
12.933333,0.000060
12.966667,0.000086
13.000000,0.000086
13.033333,0.000062
13.066667,0.000020
13.100000,-0.000025
13.133333,-0.000060
13.166667,-0.000075
13.200000,-0.000066
13.233333,-0.000039
13.266667,-0.000006
13.300000,0.000020
13.333333,0.000030
13.366667,0.000022
13.400000,0.000000
13.433333,-0.000023
13.466667,-0.000039
13.500000,-0.000038
13.533333,-0.000021
13.566667,0.000007
13.600000,0.000034
13.633333,0.000050
13.666667,0.000047
13.700000,0.000024
13.733333,-0.000009
13.766667,-0.000042
13.800000,-0.000061
13.833333,-0.000058
13.866667,-0.000032
13.900000,0.000009
13.933333,0.000054
13.966667,0.000087
14.000000,0.000099
14.033333,0.000085
14.066667,0.000052
14.100000,0.000009
14.133333,-0.000031
14.166667,-0.000056
14.200000,-0.000063
14.233333,-0.000053
14.266667,-0.000033
14.300000,-0.000013
14.333333,-0.000002
14.366667,-0.000001
14.400000,-0.000009
14.433333,-0.000019
14.466667,-0.000022
14.500000,-0.000015
14.533333,0.000003
14.566667,0.000027
14.600000,0.000048
14.633333,0.000056
14.666667,0.000046
14.700000,0.000020
14.733333,-0.000014
14.766667,-0.000046
14.800000,-0.000064
14.833333,-0.000062
14.866667,-0.000042
14.900000,-0.000009
14.933333,0.000024
14.966667,0.000044
15.000000,0.000045
15.033333,0.000026
15.066667,-0.000005
15.100000,-0.000036
15.133333,-0.000054
15.166667,-0.000051
15.200000,-0.000027
15.233333,0.000010
15.266667,0.000047
15.300000,0.000071
15.333333,0.000075
15.366667,0.000056
15.400000,0.000025
15.433333,-0.000009
15.466667,-0.000032
15.500000,-0.000037
15.533333,-0.000024
15.566667,0.000003
15.600000,0.000033
15.633333,0.000054
15.666667,0.000056
15.700000,0.000036
15.733333,-0.000002
15.766667,-0.000046
15.800000,-0.000085
15.833333,-0.000109
15.866667,-0.000113
15.900000,-0.000097
15.933333,-0.000068
15.966667,-0.000032
16.000000,0.000000
16.033333,0.000026
16.066667,0.000047
16.100000,0.000064
16.133333,0.000080
16.166667,0.000095
16.200000,0.000107
16.233333,0.000111
16.266667,0.000101
16.300000,0.000075
16.333333,0.000031
16.366667,-0.000023
16.400000,-0.000078
16.433333,-0.000120
16.466667,-0.000140
16.500000,-0.000132
16.533333,-0.000096
16.566667,-0.000042
16.600000,0.000016
16.633333,0.000063
16.666667,0.000088
16.700000,0.000087
16.733333,0.000065
16.766667,0.000032
16.800000,0.000001
16.833333,-0.000019
16.866667,-0.000025
16.900000,-0.000018
16.933333,-0.000007
16.966667,-0.000000
17.000000,-0.000003
17.033333,-0.000017
17.066667,-0.000036
17.100000,-0.000051
17.133333,-0.000055
17.166667,-0.000042
17.200000,-0.000016
17.233333,0.000018
17.266667,0.000048
17.300000,0.000064
17.333333,0.000061
17.366667,0.000038
17.400000,0.000005
17.433333,-0.000028
17.466667,-0.000050
17.500000,-0.000053
17.533333,-0.000035
17.566667,-0.000005
17.600000,0.000029
17.633333,0.000054
17.666667,0.000061
17.700000,0.000047
17.733333,0.000019
17.766667,-0.000012
17.800000,-0.000037
17.833333,-0.000046
17.866667,-0.000038
17.900000,-0.000016
17.933333,0.000010
17.966667,0.000031
18.000000,0.000037
18.033333,0.000028
18.066667,0.000008
18.100000,-0.000015
18.133333,-0.000032
18.166667,-0.000035
18.200000,-0.000023
18.233333,-0.000002
18.266667,0.000021
18.300000,0.000037
18.333333,0.000039
18.366667,0.000026
18.400000,0.000004
18.433333,-0.000019
18.466667,-0.000033
18.500000,-0.000033
18.533333,-0.000018
18.566667,0.000007
18.600000,0.000033
18.633333,0.000047
18.666667,0.000043
18.700000,0.000021
18.733333,-0.000013
18.766667,-0.000048
18.800000,-0.000072
18.833333,-0.000079
18.866667,-0.000065
18.900000,-0.000036
18.933333,-0.000002
18.966667,0.000026
19.000000,0.000039
19.033333,0.000034
19.066667,0.000017
19.100000,-0.000003
19.133333,-0.000017
19.166667,-0.000016
19.200000,-0.000001
19.233333,0.000023
19.266667,0.000046
19.300000,0.000058
19.333333,0.000051
19.366667,0.000027
19.400000,-0.000008
19.433333,-0.000041
19.466667,-0.000059
19.500000,-0.000057
19.533333,-0.000032
19.566667,0.000008
19.600000,0.000050
19.633333,0.000080
19.666667,0.000087
19.700000,0.000071
19.733333,0.000035
19.766667,-0.000006
19.800000,-0.000040
19.833333,-0.000057
19.866667,-0.000051
19.900000,-0.000028
19.933333,0.000003
19.966667,0.000028
20.000000,0.000037
20.033333,0.000026
20.066667,-0.000001
20.100000,-0.000036
20.133333,-0.000066
20.166667,-0.000083
20.200000,-0.000082
20.233333,-0.000066
20.266667,-0.000040
20.300000,-0.000016
20.333333,0.000001
20.366667,0.000007
20.400000,0.000003
20.433333,-0.000003
20.466667,-0.000008
20.500000,-0.000006
20.533333,0.000003
20.566667,0.000019
20.600000,0.000036
20.633333,0.000048
20.666667,0.000051
20.700000,0.000046
20.733333,0.000035
20.766667,0.000026
20.800000,0.000023
20.833333,0.000029
20.866667,0.000043
20.900000,0.000059
20.933333,0.000069
20.966667,0.000064
21.000000,0.000042
21.033333,0.000005
21.066667,-0.000037
21.100000,-0.000074
21.133333,-0.000095
21.166667,-0.000092
21.200000,-0.000066
21.233333,-0.000026
21.266667,0.000015
21.300000,0.000045
21.333333,0.000053
21.366667,0.000039
21.400000,0.000008
21.433333,-0.000029
21.466667,-0.000057
21.500000,-0.000068
21.533333,-0.000058
21.566667,-0.000032
21.600000,0.000002
21.633333,0.000030
21.666667,0.000042
21.700000,0.000034
21.733333,0.000012
21.766667,-0.000016
21.800000,-0.000037
21.833333,-0.000045
21.866667,-0.000035
21.900000,-0.000012
21.933333,0.000015
21.966667,0.000034
22.000000,0.000039
22.033333,0.000027
22.066667,0.000004
22.100000,-0.000021
22.133333,-0.000037
22.166667,-0.000040
22.200000,-0.000028
22.233333,-0.000007
22.266667,0.000016
22.300000,0.000033
22.333333,0.000038
22.366667,0.000032
22.400000,0.000019
22.433333,0.000005
22.466667,-0.000002
22.500000,-0.000001
22.533333,0.000008
22.566667,0.000019
22.600000,0.000028
22.633333,0.000029
22.666667,0.000023
22.700000,0.000015
22.733333,0.000013
22.766667,0.000023
22.800000,0.000048
22.833333,0.000081
22.866667,0.000111
22.900000,0.000123
22.933333,0.000106
22.966667,0.000054
23.000000,-0.000028
23.033333,-0.000124
23.066667,-0.000211
23.100000,-0.000268
23.133333,-0.000281
23.166667,-0.000244
23.200000,-0.000168
23.233333,-0.000070
23.266667,0.000027
23.300000,0.000102
23.333333,0.000142
23.366667,0.000144
23.400000,0.000117
23.433333,0.000077
23.466667,0.000040
23.500000,0.000021
23.533333,0.000023
23.566667,0.000042
23.600000,0.000067
23.633333,0.000083
23.666667,0.000078
23.700000,0.000048
23.733333,0.000001
23.766667,-0.000050
23.800000,-0.000090
23.833333,-0.000108
23.866667,-0.000097
23.900000,-0.000063
23.933333,-0.000016
23.966667,0.000030
24.000000,0.000062
24.033333,0.000073
24.066667,0.000065
24.100000,0.000044
24.133333,0.000019
24.166667,-0.000002
24.200000,-0.000015
24.233333,-0.000021
24.266667,-0.000026
24.300000,-0.000034
24.333333,-0.000050
24.366667,-0.000069
24.400000,-0.000084
24.433333,-0.000084
24.466667,-0.000060
24.500000,-0.000014
24.533333,0.000049
24.566667,0.000114
24.600000,0.000163
24.633333,0.000182
24.666667,0.000164
24.700000,0.000110
24.733333,0.000034
24.766667,-0.000046
24.800000,-0.000113
24.833333,-0.000152
24.866667,-0.000157
24.900000,-0.000130
24.933333,-0.000085
24.966667,-0.000036
25.000000,0.000003
25.033333,0.000023
25.066667,0.000023
25.100000,0.000010
25.133333,-0.000006
25.166667,-0.000017
25.200000,-0.000017
25.233333,-0.000008
25.266667,0.000006
25.300000,0.000018
25.333333,0.000021
25.366667,0.000016
25.400000,0.000007
25.433333,0.000002
25.466667,0.000010
25.500000,0.000031
25.533333,0.000064
25.566667,0.000098
25.600000,0.000123
25.633333,0.000128
25.666667,0.000106
25.700000,0.000060
25.733333,0.000001
25.766667,-0.000058
25.800000,-0.000100
25.833333,-0.000118
25.866667,-0.000108
25.900000,-0.000078
25.933333,-0.000039
25.966667,-0.000008
26.000000,0.000007
26.033333,0.000000
26.066667,-0.000021
26.100000,-0.000046
26.133333,-0.000062
26.166667,-0.000062
26.200000,-0.000042
26.233333,-0.000009
26.266667,0.000028
26.300000,0.000055
26.333333,0.000062
26.366667,0.000047
26.400000,0.000016
26.433333,-0.000022
26.466667,-0.000054
26.500000,-0.000069
26.533333,-0.000065
26.566667,-0.000042
26.600000,-0.000009
26.633333,0.000025
26.666667,0.000052
26.700000,0.000067
26.733333,0.000073
26.766667,0.000076
26.800000,0.000082
26.833333,0.000093
26.866667,0.000109
26.900000,0.000124
26.933333,0.000128
26.966667,0.000109
27.000000,0.000063
27.033333,-0.000007
27.066667,-0.000090
27.100000,-0.000168
27.133333,-0.000223
27.166667,-0.000241
27.200000,-0.000216
27.233333,-0.000154
27.266667,-0.000070
27.300000,0.000018
27.333333,0.000089
27.366667,0.000131
27.400000,0.000140
27.433333,0.000123
27.466667,0.000089
27.500000,0.000052
27.533333,0.000020
27.566667,0.000000
27.600000,-0.000011
27.633333,-0.000018
27.666667,-0.000030
27.700000,-0.000050
27.733333,-0.000077
27.766667,-0.000108
27.800000,-0.000133
27.833333,-0.000144
27.866667,-0.000134
27.900000,-0.000103
27.933333,-0.000053
27.966667,0.000007
28.000000,0.000068
28.033333,0.000123
28.066667,0.000166
28.100000,0.000198
28.133333,0.000216
28.166667,0.000222
28.200000,0.000215
28.233333,0.000193
28.266667,0.000153
28.300000,0.000095
28.333333,0.000019
28.366667,-0.000069
28.400000,-0.000159
28.433333,-0.000237
28.466667,-0.000290
28.500000,-0.000306
28.533333,-0.000279
28.566667,-0.000213
28.600000,-0.000118
28.633333,-0.000012
28.666667,0.000083
28.700000,0.000152
28.733333,0.000184
28.766667,0.000178
28.800000,0.000140
28.833333,0.000083
28.866667,0.000021
28.900000,-0.000036
28.933333,-0.000079
28.966667,-0.000104
29.000000,-0.000111
29.033333,-0.000101
29.066667,-0.000074
29.100000,-0.000034
29.133333,0.000016
29.166667,0.000067
29.200000,0.000110
29.233333,0.000137
29.266667,0.000139
29.300000,0.000118
29.333333,0.000078
29.366667,0.000029
29.400000,-0.000018
29.433333,-0.000053
29.466667,-0.000069
29.500000,-0.000064
29.533333,-0.000041
29.566667,-0.000008
29.600000,0.000025
29.633333,0.000046
29.666667,0.000047
29.700000,0.000029
29.733333,-0.000004
29.766667,-0.000042
29.800000,-0.000074
29.833333,-0.000091
29.866667,-0.000090
29.900000,-0.000073
29.933333,-0.000047
29.966667,-0.000020
30.000000,-0.000000
30.033333,0.000009
30.066667,0.000012
30.100000,0.000016
30.133333,0.000025
30.166667,0.000044
30.200000,0.000069
30.233333,0.000094
30.266667,0.000108
30.300000,0.000104
30.333333,0.000079
30.366667,0.000035
30.400000,-0.000015
30.433333,-0.000060
30.466667,-0.000086
30.500000,-0.000088
30.533333,-0.000067
30.566667,-0.000031
30.600000,0.000005
30.633333,0.000028
30.666667,0.000027
30.700000,0.000003
30.733333,-0.000039
30.766667,-0.000082
30.800000,-0.000113
30.833333,-0.000120
30.866667,-0.000099
30.900000,-0.000055
30.933333,0.000000
30.966667,0.000052
31.000000,0.000087
31.033333,0.000099
31.066667,0.000092
31.100000,0.000072
31.133333,0.000051
31.166667,0.000037
31.200000,0.000033
31.233333,0.000038
31.266667,0.000044
31.300000,0.000043
31.333333,0.000029
31.366667,0.000003
31.400000,-0.000029
31.433333,-0.000057
31.466667,-0.000072
31.500000,-0.000068
31.533333,-0.000046
31.566667,-0.000013
31.600000,0.000020
31.633333,0.000040
31.666667,0.000042
31.700000,0.000024
31.733333,-0.000006
31.766667,-0.000037
31.800000,-0.000058
31.833333,-0.000062
31.866667,-0.000048
31.900000,-0.000020
31.933333,0.000011
31.966667,0.000033
32.000000,0.000039
32.033333,0.000029
32.066667,0.000007
32.100000,-0.000016
32.133333,-0.000030
32.166667,-0.000029
32.200000,-0.000011
32.233333,0.000016
32.266667,0.000043
32.300000,0.000059
32.333333,0.000057
32.366667,0.000038
32.400000,0.000009
32.433333,-0.000018
32.466667,-0.000032
32.500000,-0.000026
32.533333,-0.000004
32.566667,0.000027
32.600000,0.000052
32.633333,0.000061
32.666667,0.000045
32.700000,0.000006
32.733333,-0.000045
32.766667,-0.000093
32.800000,-0.000124
32.833333,-0.000127
32.866667,-0.000101
32.900000,-0.000054
32.933333,-0.000001
32.966667,0.000045
33.000000,0.000071
33.033333,0.000073
33.066667,0.000057
33.100000,0.000032
33.133333,0.000009
33.166667,-0.000002
33.200000,0.000002
33.233333,0.000018
33.266667,0.000037
33.300000,0.000052
33.333333,0.000052
33.366667,0.000038
33.400000,0.000013
33.433333,-0.000013
33.466667,-0.000032
33.500000,-0.000036
33.533333,-0.000025
33.566667,-0.000002
33.600000,0.000022
33.633333,0.000037
33.666667,0.000035
33.700000,0.000016
33.733333,-0.000014
33.766667,-0.000045
33.800000,-0.000068
33.833333,-0.000076
33.866667,-0.000067
33.900000,-0.000047
33.933333,-0.000025
33.966667,-0.000010
34.000000,-0.000008
34.033333,-0.000018
34.066667,-0.000033
34.100000,-0.000044
34.133333,-0.000041
34.166667,-0.000021
34.200000,0.000015
34.233333,0.000059
34.266667,0.000098
34.300000,0.000121
34.333333,0.000121
34.366667,0.000098
34.400000,0.000061
34.433333,0.000020
34.466667,-0.000011
34.500000,-0.000025
34.533333,-0.000021
34.566667,-0.000005
34.600000,0.000011
34.633333,0.000018
34.666667,0.000008
