Time_Sec,Amplitude
0.000000,0.154488
0.033333,-0.526706
0.066667,-1.144154
0.100000,-1.630182
0.133333,-1.924870
0.166667,-1.990219
0.200000,-1.820935
0.233333,-1.443813
0.266667,-0.907250
0.300000,-0.269933
0.333333,0.403943
0.366667,1.043593
0.400000,1.570916
0.433333,1.905740
0.466667,1.979386
0.500000,1.755444
0.533333,1.251380
0.566667,0.548758
0.600000,-0.219190
0.633333,-0.902505
0.666667,-1.378284
0.700000,-1.584911
0.733333,-1.534226
0.766667,-1.299153
0.800000,-0.983098
0.833333,-0.682923
0.866667,-0.458429
0.900000,-0.317721
0.933333,-0.221583
0.966667,-0.104118
1.000000,0.097247
1.033333,0.412645
1.066667,0.822826
1.100000,1.261601
1.133333,1.636293
1.166667,1.857409
1.200000,1.866436
1.233333,1.652308
1.266667,1.251084
1.300000,0.730568
1.333333,0.169256
1.366667,-0.360256
1.400000,-0.800321
1.433333,-1.113479
1.466667,-1.287683
1.500000,-1.340932
1.533333,-1.321121
1.566667,-1.296372
1.600000,-1.333802
1.633333,-1.470317
1.666667,-1.685764
1.700000,-1.892376
1.733333,-1.951128
1.766667,-1.714976
1.800000,-1.086163
1.833333,-0.066707
1.866667,1.218576
1.900000,2.538844
1.933333,3.612568
1.966667,4.185915
2.000000,4.109551
2.033333,3.388383
2.066667,2.186006
2.100000,0.779639
2.133333,-0.521370
2.166667,-1.466427
2.200000,-1.932597
2.233333,-1.947465
2.266667,-1.658690
2.300000,-1.263773
2.333333,-0.930050
2.366667,-0.738704
2.400000,-0.673903
2.433333,-0.655695
2.466667,-0.595397
2.500000,-0.444453
2.533333,-0.214322
2.566667,0.037839
2.600000,0.244185
2.633333,0.359641
2.666667,0.377564
2.700000,0.325221
2.733333,0.246924
2.766667,0.184730
2.800000,0.163633
2.833333,0.184379
2.866667,0.224046
2.900000,0.243134
2.933333,0.197581
2.966667,0.053794
3.000000,-0.196242
3.033333,-0.523843
3.066667,-0.861013
3.100000,-1.109967
3.133333,-1.165517
3.166667,-0.946488
3.200000,-0.427956
3.233333,0.336076
3.266667,1.209522
3.300000,1.997593
3.333333,2.496417
3.366667,2.556027
3.400000,2.132823
3.433333,1.308526
3.466667,0.267631
3.500000,-0.756313
3.533333,-1.544880
3.566667,-1.948659
3.600000,-1.917028
3.633333,-1.499941
3.666667,-0.826704
3.700000,-0.071081
3.733333,0.588067
3.766667,1.003055
3.800000,1.084485
3.833333,0.815638
3.866667,0.253633
3.900000,-0.482247
3.933333,-1.235538
3.966667,-1.848763
4.000000,-2.201480
4.033333,-2.235932
4.066667,-1.959817
4.100000,-1.426868
4.133333,-0.707376
4.166667,0.133876
4.200000,1.039067
4.233333,1.938263
4.266667,2.725995
4.300000,3.257479
4.333333,3.380279
4.366667,2.995068
4.400000,2.116177
4.433333,0.895572
4.466667,-0.408919
4.500000,-1.509777
4.533333,-2.177232
4.566667,-2.304424
4.600000,-1.930707
4.633333,-1.219586
4.666667,-0.401173
4.700000,0.300352
4.733333,0.728866
4.766667,0.827918
4.800000,0.636408
4.833333,0.257936
4.866667,-0.180007
4.900000,-0.563060
4.933333,-0.814868
4.966667,-0.906702
5.000000,-0.852756
5.033333,-0.694955
5.066667,-0.483024
5.100000,-0.256864
5.133333,-0.037729
5.166667,0.169163
5.200000,0.363945
5.233333,0.540409
5.266667,0.679748
5.300000,0.752864
5.333333,0.730734
5.366667,0.598701
5.400000,0.367758
5.433333,0.076759
5.466667,-0.215802
5.500000,-0.447075
5.533333,-0.567036
5.566667,-0.552312
5.600000,-0.412123
5.633333,-0.184359
5.666667,0.076105
5.700000,0.312213
5.733333,0.478342
5.766667,0.549706
5.800000,0.525296
5.833333,0.423789
5.866667,0.274857
5.900000,0.109937
5.933333,-0.044672
5.966667,-0.171509
6.000000,-0.262360
6.033333,-0.316116
6.066667,-0.335928
6.100000,-0.327273
6.133333,-0.296724
6.166667,-0.250457
6.200000,-0.192844
6.233333,-0.126366
6.266667,-0.053085
6.300000,0.023373
6.333333,0.096330
6.366667,0.155863
6.400000,0.190726
6.433333,0.192152
6.466667,0.157475
6.500000,0.091265
6.533333,0.003834
6.566667,-0.091172
6.600000,-0.178731
6.633333,-0.243826
6.666667,-0.272665
6.700000,-0.254366
6.733333,-0.183731
6.766667,-0.064750
6.800000,0.087109
6.833333,0.245897
6.866667,0.379949
6.900000,0.459338
6.933333,0.464241
6.966667,0.391606
7.000000,0.256834
7.033333,0.088962
7.066667,-0.078523
7.100000,-0.216953
7.133333,-0.308587
7.166667,-0.348232
7.200000,-0.340538
7.233333,-0.294839
7.266667,-0.220936
7.300000,-0.128201
7.333333,-0.027145
7.366667,0.069263
7.400000,0.146172
7.433333,0.189333
7.466667,0.188965
7.500000,0.143887
7.533333,0.063763
7.566667,-0.032453
7.600000,-0.121445
7.633333,-0.181443
7.666667,-0.196828
7.700000,-0.160160
7.733333,-0.071306
7.766667,0.065155
7.800000,0.241396
7.833333,0.444473
7.866667,0.652312
7.900000,0.831510
7.933333,0.940193
7.966667,0.936295
8.000000,0.788892
8.033333,0.488408
8.066667,0.051450
8.100000,-0.480905
8.133333,-1.048557
8.166667,-1.578812
8.200000,-1.994751
8.233333,-2.227910
8.266667,-2.233731
8.300000,-2.003494
8.333333,-1.565827
8.366667,-0.975337
8.400000,-0.292983
8.433333,0.431033
8.466667,1.160246
8.500000,1.857347
8.533333,2.462637
8.566667,2.885140
8.600000,3.020815
8.633333,2.794506
8.666667,2.203989
8.700000,1.339238
8.733333,0.363253
8.766667,-0.536695
8.800000,-1.204196
8.833333,-1.554176
8.866667,-1.588500
8.900000,-1.385266
8.933333,-1.066493
8.966667,-0.755093
9.000000,-0.536473
9.033333,-0.438219
9.066667,-0.433363
9.100000,-0.462989
9.133333,-0.466995
9.166667,-0.409641
9.200000,-0.289940
9.233333,-0.135142
9.266667,0.016140
9.300000,0.131401
9.333333,0.195207
9.366667,0.211153
9.400000,0.195923
9.433333,0.169310
9.466667,0.145791
9.500000,0.131778
9.533333,0.128240
9.566667,0.134979
9.600000,0.153040
9.633333,0.183944
9.666667,0.226543
9.700000,0.273680
9.733333,0.311322
9.766667,0.321492
9.800000,0.287890
9.833333,0.202109
9.866667,0.068745
9.900000,-0.092169
9.933333,-0.247446
9.966667,-0.358563
10.000000,-0.392927
10.033333,-0.334606
10.066667,-0.190888
10.100000,0.007639
10.133333,0.214299
10.166667,0.378974
10.200000,0.461582
10.233333,0.441669
10.266667,0.322145
10.300000,0.127759
10.333333,-0.100646
10.366667,-0.314891
10.400000,-0.469389
10.433333,-0.530412
10.466667,-0.483597
10.500000,-0.338361
10.533333,-0.126879
10.566667,0.103473
10.600000,0.301931
10.633333,0.426129
10.666667,0.450698
10.700000,0.371555
10.733333,0.205595
10.766667,-0.013842
10.800000,-0.244128
10.833333,-0.441166
10.866667,-0.567024
10.900000,-0.596907
10.933333,-0.524025
10.966667,-0.360772
11.000000,-0.136071
11.033333,0.110220
11.066667,0.335149
11.100000,0.501628
11.133333,0.586071
11.166667,0.582089
11.200000,0.499555
11.233333,0.360318
11.266667,0.192156
11.300000,0.022400
11.333333,-0.127179
11.366667,-0.242967
11.400000,-0.319591
11.433333,-0.358301
11.466667,-0.364316
11.500000,-0.343693
11.533333,-0.300818
11.566667,-0.237543
11.600000,-0.154038
11.633333,-0.050730
11.666667,0.069235
11.700000,0.197717
11.733333,0.320760
11.766667,0.420120
11.800000,0.476688
11.833333,0.474726
11.866667,0.406544
11.900000,0.277400
11.933333,0.109095
11.966667,-0.060498
12.000000,-0.184232
12.033333,-0.218864
12.066667,-0.141426
12.100000,0.037750
12.133333,0.272664
12.166667,0.493105
12.200000,0.625960
12.233333,0.617363
12.266667,0.447034
12.300000,0.130381
12.333333,-0.290493
12.366667,-0.760664
12.400000,-1.223217
12.433333,-1.623403
12.466667,-1.909695
12.500000,-2.037961
12.533333,-1.980149
12.566667,-1.732217
12.600000,-1.314200
12.633333,-0.760011
12.666667,-0.102163
12.700000,0.637481
12.733333,1.440352
12.766667,2.266412
12.800000,3.026745
12.833333,3.577913
12.866667,3.755156
12.900000,3.437611
12.933333,2.613473
12.966667,1.406697
13.000000,0.047180
13.033333,-1.200836
13.066667,-2.117386
13.100000,-2.581621
13.133333,-2.589358
13.166667,-2.235478
13.200000,-1.672616
13.233333,-1.062174
13.266667,-0.533512
13.300000,-0.161677
13.333333,0.034827
13.366667,0.081930
13.400000,0.031631
13.433333,-0.056177
13.466667,-0.128115
13.500000,-0.146972
13.533333,-0.097086
13.566667,0.014050
13.600000,0.158327
13.633333,0.294583
13.666667,0.381175
13.700000,0.390788
13.733333,0.321649
13.766667,0.198896
13.800000,0.064263
13.833333,-0.041108
13.866667,-0.092102
13.900000,-0.086368
13.933333,-0.040394
13.966667,0.022294
14.000000,0.084931
14.033333,0.146301
14.066667,0.219088
14.100000,0.317558
14.133333,0.441233
14.166667,0.564907
14.200000,0.642509
14.233333,0.624693
14.266667,0.482188
14.300000,0.223023
14.333333,-0.105791
14.366667,-0.433317
14.400000,-0.688826
14.433333,-0.823941
14.466667,-0.824513
14.500000,-0.709332
14.533333,-0.517892
14.566667,-0.293520
14.600000,-0.069852
14.633333,0.133658
14.666667,0.307221
14.700000,0.442251
14.733333,0.525326
14.766667,0.538883
14.800000,0.469040
14.833333,0.316473
14.866667,0.103314
14.900000,-0.129438
14.933333,-0.333615
14.966667,-0.468945
15.000000,-0.514606
15.033333,-0.473024
15.066667,-0.365533
15.100000,-0.222874
15.133333,-0.075300
15.166667,0.054041
15.200000,0.151646
15.233333,0.213280
15.266667,0.241750
15.300000,0.243539
15.333333,0.225464
15.366667,0.192700
15.400000,0.148576
15.433333,0.095758
15.466667,0.038341
15.500000,-0.016065
15.533333,-0.055888
15.566667,-0.068076
15.600000,-0.043054
15.633333,0.019668
15.666667,0.107439
15.700000,0.194376
15.733333,0.247125
15.766667,0.235554
15.800000,0.143900
15.833333,-0.022714
15.866667,-0.238234
15.900000,-0.460647
15.933333,-0.640063
15.966667,-0.728772
16.000000,-0.692139
16.033333,-0.518459
16.066667,-0.225402
16.100000,0.139586
16.133333,0.507091
16.166667,0.801608
16.200000,0.961759
16.233333,0.958537
16.266667,0.805307
16.300000,0.555298
16.333333,0.285801
16.366667,0.073368
16.400000,-0.031037
16.433333,-0.017728
16.466667,0.079956
16.500000,0.197173
16.533333,0.257900
16.566667,0.197501
16.600000,-0.019276
16.633333,-0.388832
16.666667,-0.867659
16.700000,-1.378682
16.733333,-1.825734
16.766667,-2.115785
16.800000,-2.182843
16.833333,-2.003366
16.866667,-1.595911
16.900000,-1.006012
16.933333,-0.285201
16.966667,0.523104
17.000000,1.380758
17.033333,2.234827
17.066667,2.993973
17.100000,3.523506
17.133333,3.675040
17.166667,3.345193
17.200000,2.533968
17.233333,1.367036
17.266667,0.065410
17.300000,-1.122845
17.333333,-1.995599
17.366667,-2.445667
17.400000,-2.474106
17.433333,-2.170866
17.466667,-1.674423
17.500000,-1.125991
17.533333,-0.633308
17.566667,-0.253329
17.600000,0.005369
17.633333,0.166448
17.666667,0.264616
17.700000,0.327579
17.733333,0.366905
17.766667,0.379183
17.800000,0.354129
17.833333,0.284197
17.866667,0.171524
17.900000,0.030239
17.933333,-0.116324
17.966667,-0.242270
18.000000,-0.326560
18.033333,-0.357771
18.066667,-0.334850
18.100000,-0.264664
18.133333,-0.157988
18.166667,-0.025648
18.200000,0.123429
18.233333,0.281324
18.266667,0.438298
18.300000,0.580302
18.333333,0.688686
18.366667,0.742781
18.400000,0.724979
18.433333,0.626796
18.466667,0.453305
18.500000,0.223719
18.533333,-0.032102
18.566667,-0.279742
18.600000,-0.487052
18.633333,-0.629900
18.666667,-0.695313
18.700000,-0.681586
18.733333,-0.596484
18.766667,-0.455014
18.800000,-0.277221
18.833333,-0.085887
18.866667,0.095753
18.900000,0.246171
18.933333,0.348033
18.966667,0.391226
19.000000,0.375244
19.033333,0.309450
19.066667,0.211103
19.100000,0.102164
19.133333,0.005339
19.166667,-0.060716
19.200000,-0.086322
19.233333,-0.074107
19.266667,-0.039134
19.300000,-0.004937
19.333333,0.004386
19.366667,-0.026097
19.400000,-0.094890
19.433333,-0.183346
19.466667,-0.262203
19.500000,-0.302347
19.533333,-0.285310
19.566667,-0.209819
19.600000,-0.092359
19.633333,0.038139
19.666667,0.149327
19.700000,0.215037
19.733333,0.222621
19.766667,0.175963
19.800000,0.093207
19.833333,0.000130
19.866667,-0.077963
19.900000,-0.122706
19.933333,-0.125937
19.966667,-0.089815
20.000000,-0.024446
20.033333,0.055903
20.066667,0.136457
20.100000,0.204448
20.133333,0.250661
20.166667,0.270494
20.200000,0.264149
20.233333,0.235332
20.266667,0.188958
20.300000,0.129148
20.333333,0.058422
20.366667,-0.021629
20.400000,-0.108088
20.433333,-0.193509
20.466667,-0.263559
20.500000,-0.297589
20.533333,-0.272977
20.566667,-0.172605
20.600000,0.006223
20.633333,0.244498
20.666667,0.500025
20.700000,0.714558
20.733333,0.828232
20.766667,0.796014
20.800000,0.600001
20.833333,0.253627
20.866667,-0.202756
20.900000,-0.711857
20.933333,-1.209958
20.966667,-1.634855
21.000000,-1.932384
21.033333,-2.063857
21.066667,-2.013068
21.100000,-1.787729
21.133333,-1.411431
21.166667,-0.908075
21.200000,-0.287440
21.233333,0.456256
21.266667,1.324655
21.300000,2.278693
21.333333,3.205566
21.366667,3.917415
21.400000,4.198620
21.433333,3.889956
21.466667,2.969258
21.500000,1.582421
21.533333,0.004199
21.566667,-1.451820
21.600000,-2.530009
21.633333,-3.097098
21.666667,-3.157496
21.700000,-2.824472
21.733333,-2.265023
21.766667,-1.640881
21.800000,-1.065503
21.833333,-0.588034
21.866667,-0.203639
21.900000,0.119726
21.933333,0.411858
21.966667,0.680138
22.000000,0.905183
22.033333,1.051521
22.066667,1.086350
22.100000,0.997025
22.133333,0.799841
22.166667,0.537006
22.200000,0.263575
22.233333,0.030265
22.266667,-0.130449
22.300000,-0.210167
22.333333,-0.222308
22.366667,-0.194523
22.400000,-0.158539
22.433333,-0.139982
22.466667,-0.151310
22.500000,-0.190090
22.533333,-0.242109
22.566667,-0.286841
22.600000,-0.303375
22.633333,-0.276015
22.666667,-0.198747
22.700000,-0.077604
22.733333,0.069433
22.766667,0.215018
22.800000,0.327792
22.833333,0.380241
22.866667,0.356975
22.900000,0.260322
22.933333,0.111326
22.966667,-0.053754
23.000000,-0.190606
23.033333,-0.256888
23.066667,-0.223910
23.100000,-0.087515
23.133333,0.125521
23.166667,0.359684
23.200000,0.543809
23.233333,0.612738
23.266667,0.529840
23.300000,0.300967
23.333333,-0.025823
23.366667,-0.374103
23.400000,-0.660941
23.433333,-0.819323
23.466667,-0.814460
23.500000,-0.650387
23.533333,-0.366882
23.566667,-0.028804
23.600000,0.289493
23.633333,0.521386
23.666667,0.622663
23.700000,0.580016
23.733333,0.411892
23.766667,0.162276
23.800000,-0.110924
23.833333,-0.350028
23.866667,-0.510129
23.900000,-0.566551
23.933333,-0.516379
23.966667,-0.375562
24.000000,-0.173483
24.033333,0.053427
24.066667,0.267648
24.100000,0.435434
24.133333,0.530981
24.166667,0.540339
24.200000,0.464062
24.233333,0.317004
24.266667,0.125110
24.300000,-0.079471
24.333333,-0.263727
24.366667,-0.399081
24.400000,-0.465975
24.433333,-0.456740
24.466667,-0.376105
24.500000,-0.239408
24.533333,-0.069050
24.566667,0.109778
24.600000,0.272904
24.633333,0.399982
24.666667,0.476814
24.700000,0.497665
24.733333,0.466952
24.766667,0.399078
24.800000,0.315819
24.833333,0.241328
24.866667,0.195333
24.900000,0.186219
24.933333,0.207031
24.966667,0.236677
25.000000,0.245771
25.033333,0.204489
25.066667,0.089837
25.100000,-0.109355
25.133333,-0.390462
25.166667,-0.737190
25.200000,-1.119576
25.233333,-1.493714
25.266667,-1.804783
25.300000,-1.996724
25.333333,-2.026004
25.366667,-1.871608
25.400000,-1.534556
25.433333,-1.027241
25.466667,-0.360555
25.500000,0.459282
25.533333,1.415375
25.566667,2.448915
25.600000,3.430598
25.633333,4.161991
25.666667,4.424336
25.700000,4.063786
25.733333,3.072109
25.766667,1.615408
25.800000,-0.009737
25.833333,-1.471866
25.866667,-2.506496
25.900000,-2.984433
25.933333,-2.929384
25.966667,-2.488518
26.000000,-1.872137
26.033333,-1.284214
26.066667,-0.865251
26.100000,-0.662504
26.133333,-0.632289
26.166667,-0.669083
26.200000,-0.649918
26.233333,-0.480048
26.266667,-0.126582
26.300000,0.369470
26.333333,0.905798
26.366667,1.351873
26.400000,1.592114
26.433333,1.564724
26.466667,1.281956
26.500000,0.823960
26.533333,0.309315
26.566667,-0.145052
26.600000,-0.458654
26.633333,-0.604796
26.666667,-0.606406
26.700000,-0.515495
26.733333,-0.387577
26.766667,-0.262332
26.800000,-0.156134
26.833333,-0.065710
26.866667,0.021431
26.900000,0.115190
26.933333,0.214686
26.966667,0.306469
27.000000,0.368672
27.033333,0.378599
27.066667,0.321445
27.100000,0.198043
27.133333,0.028718
27.166667,-0.149608
27.200000,-0.293334
27.233333,-0.366077
27.266667,-0.351620
27.300000,-0.260865
27.333333,-0.129199
27.366667,-0.004227
27.400000,0.071602
27.433333,0.076348
27.466667,0.015980
27.500000,-0.078419
27.533333,-0.162346
27.566667,-0.194346
27.600000,-0.151543
27.633333,-0.038656
27.666667,0.112789
27.700000,0.255044
27.733333,0.341130
27.766667,0.342044
27.800000,0.257243
27.833333,0.114155
27.866667,-0.042383
27.900000,-0.165769
27.933333,-0.222287
27.966667,-0.200094
28.000000,-0.110390
28.033333,0.018263
28.066667,0.149058
28.100000,0.246057
28.133333,0.281694
28.166667,0.242255
28.200000,0.130650
28.233333,-0.034263
28.266667,-0.221445
28.300000,-0.393433
28.333333,-0.513500
28.366667,-0.553687
28.400000,-0.502166
28.433333,-0.367539
28.466667,-0.178245
28.500000,0.023680
28.533333,0.193881
28.566667,0.299158
28.600000,0.327959
28.633333,0.293016
28.666667,0.224909
28.700000,0.159726
28.733333,0.126078
28.766667,0.136192
28.800000,0.183596
28.833333,0.247029
28.866667,0.298099
28.900000,0.310154
28.933333,0.266880
28.966667,0.169104
29.000000,0.037191
29.033333,-0.093005
29.066667,-0.179982
29.100000,-0.189199
29.133333,-0.105029
29.166667,0.061414
29.200000,0.271994
29.233333,0.470339
29.266667,0.596900
29.300000,0.604303
29.333333,0.467679
29.366667,0.187903
29.400000,-0.211205
29.433333,-0.688510
29.466667,-1.190375
29.500000,-1.653864
29.533333,-2.011660
29.566667,-2.202063
29.600000,-2.182319
29.633333,-1.938524
29.666667,-1.485938
29.700000,-0.859042
29.733333,-0.097334
29.766667,0.762928
29.800000,1.681959
29.833333,2.594817
29.866667,3.389550
29.900000,3.908541
29.933333,3.987967
29.966667,3.525436
30.000000,2.541414
30.033333,1.196654
30.066667,-0.248658
30.100000,-1.514876
30.133333,-2.384659
30.166667,-2.755754
30.200000,-2.652888
30.233333,-2.202719
30.266667,-1.584657
30.300000,-0.974726
30.333333,-0.499969
30.366667,-0.215627
30.400000,-0.107706
30.433333,-0.114742
30.466667,-0.158253
30.500000,-0.171316
30.533333,-0.117170
30.566667,0.005717
30.600000,0.170459
30.633333,0.335514
30.666667,0.460154
30.700000,0.517357
30.733333,0.500745
30.766667,0.423937
30.800000,0.313692
30.833333,0.200411
30.866667,0.109351
30.900000,0.054738
30.933333,0.037996
30.966667,0.050027
31.000000,0.075831
31.033333,0.099370
31.066667,0.107715
31.100000,0.094244
31.133333,0.060281
31.166667,0.014315
31.200000,-0.031050
31.233333,-0.063411
31.266667,-0.074891
31.300000,-0.065056
31.333333,-0.040864
31.366667,-0.013322
31.400000,0.007259
31.433333,0.014764
31.466667,0.008428
31.500000,-0.007871
31.533333,-0.027479
31.566667,-0.043440
31.600000,-0.050580
31.633333,-0.046370
31.666667,-0.030953
31.700000,-0.007126
31.733333,0.019812
31.766667,0.042959
31.800000,0.055286
31.833333,0.051052
31.866667,0.027152
31.900000,-0.015263
31.933333,-0.069632
31.966667,-0.124596
32.000000,-0.166717
32.033333,-0.184394
32.066667,-0.171826
32.100000,-0.131768
32.133333,-0.075581
32.166667,-0.019684
32.200000,0.020577
32.233333,0.037086
32.266667,0.032558
32.300000,0.019733
32.333333,0.015716
32.366667,0.033460
32.400000,0.074819
32.433333,0.129134
32.466667,0.177830
32.500000,0.202203
32.533333,0.190819
32.566667,0.143610
32.600000,0.071057
32.633333,-0.010827
32.666667,-0.086406
32.700000,-0.143884
32.733333,-0.175741
32.766667,-0.177876
32.800000,-0.148969
32.833333,-0.090496
32.866667,-0.007630
32.900000,0.089205
32.933333,0.183690
32.966667,0.255701
33.000000,0.286048
33.033333,0.261745
33.066667,0.179684
33.100000,0.047868
33.133333,-0.115854
33.166667,-0.286955
33.200000,-0.437975
33.233333,-0.541514
33.266667,-0.572342
33.300000,-0.509556
33.333333,-0.339911
33.366667,-0.062915
33.400000,0.302792
33.433333,0.714309
33.466667,1.104894
33.500000,1.393457
33.533333,1.502545
33.566667,1.379622
33.600000,1.014249
33.633333,0.444463
33.666667,-0.250960
33.700000,-0.971591
33.733333,-1.617578
33.766667,-2.107128
33.800000,-2.386708
33.833333,-2.435395
33.866667,-2.264111
33.900000,-1.908647
33.933333,-1.416250
33.966667,-0.828950
34.000000,-0.170368
34.033333,0.555421
34.066667,1.346967
34.100000,2.173947
34.133333,2.947933
34.166667,3.519405
34.200000,3.715968
34.233333,3.412334
34.266667,2.597749
34.300000,1.401525
34.333333,0.059646
34.366667,-1.160522
34.400000,-2.040650
34.433333,-2.465603
34.466667,-2.438658
34.500000,-2.061248
34.533333,-1.489635
34.566667,-0.885005
34.600000,-0.373056
34.633333,-0.023271
