# Time_Sec,Amplitude
0.000000,-0.000989
0.033333,-0.001861
0.066667,-0.002935
0.100000,-0.004343
0.133333,-0.006059
0.166667,-0.007865
0.200000,-0.009367
0.233333,-0.010102
0.266667,-0.009706
0.300000,-0.008086
0.333333,-0.005491
0.366667,-0.002449
0.400000,0.000403
0.433333,0.002525
0.466667,0.003646
0.500000,0.003858
0.533333,0.003575
0.566667,0.003350
0.600000,0.003628
0.633333,0.004544
0.666667,0.005863
0.700000,0.007097
0.733333,0.007713
0.766667,0.007343
0.800000,0.005893
0.833333,0.003542
0.866667,0.000653
0.900000,-0.002317
0.933333,-0.004918
0.966667,-0.006777
1.000000,-0.007670
1.033333,-0.007566
1.066667,-0.006620
1.100000,-0.005114
1.133333,-0.003385
1.166667,-0.001738
1.200000,-0.000383
1.233333,0.000601
1.266667,0.001268
1.300000,0.001753
1.333333,0.002189
1.366667,0.002632
1.400000,0.003037
1.433333,0.003299
1.466667,0.003333
1.500000,0.003134
1.533333,0.002776
1.566667,0.002348
1.600000,0.001890
1.633333,0.001361
1.666667,0.000668
1.700000,-0.000252
1.733333,-0.001365
1.766667,-0.002508
1.800000,-0.003432
1.833333,-0.003906
1.866667,-0.003815
1.900000,-0.003209
1.933333,-0.002278
1.966667,-0.001271
2.000000,-0.000405
2.033333,0.000204
2.066667,0.000562
2.100000,0.000767
2.133333,0.000955
2.166667,0.001231
2.200000,0.001624
2.233333,0.002064
2.266667,0.002411
2.300000,0.002502
2.333333,0.002229
2.366667,0.001585
2.400000,0.000665
2.433333,-0.000381
2.466667,-0.001395
2.500000,-0.002239
2.533333,-0.002798
2.566667,-0.002970
2.600000,-0.002688
2.633333,-0.001945
2.666667,-0.000828
2.700000,0.000478
2.733333,0.001727
2.766667,0.002674
2.800000,0.003144
2.833333,0.003070
2.866667,0.002510
2.900000,0.001614
2.933333,0.000588
2.966667,-0.000362
3.000000,-0.001074
3.033333,-0.001472
3.066667,-0.001587
3.100000,-0.001525
3.133333,-0.001417
3.166667,-0.001360
3.200000,-0.001382
3.233333,-0.001439
3.266667,-0.001454
3.300000,-0.001363
3.333333,-0.001152
3.366667,-0.000849
3.400000,-0.000491
3.433333,-0.000088
3.466667,0.000388
3.500000,0.000969
3.533333,0.001645
3.566667,0.002330
3.600000,0.002871
3.633333,0.003094
3.666667,0.002872
3.700000,0.002169
3.733333,0.001057
3.766667,-0.000296
3.800000,-0.001662
3.833333,-0.002795
3.866667,-0.003470
3.900000,-0.003531
3.933333,-0.002938
3.966667,-0.001785
4.000000,-0.000285
4.033333,0.001292
4.066667,0.002696
4.100000,0.003759
4.133333,0.004408
4.166667,0.004640
4.200000,0.004469
4.233333,0.003876
4.266667,0.002797
4.300000,0.001169
4.333333,-0.000966
4.366667,-0.003381
4.400000,-0.005664
4.433333,-0.007337
4.466667,-0.008020
4.500000,-0.007570
4.533333,-0.006108
4.566667,-0.003954
4.600000,-0.001518
4.633333,0.000801
4.666667,0.002668
4.700000,0.003845
4.733333,0.004212
4.766667,0.003806
4.800000,0.002828
4.833333,0.001621
4.866667,0.000577
4.900000,0.000040
4.933333,0.000201
4.966667,0.001041
5.000000,0.002326
5.033333,0.003668
5.066667,0.004636
5.100000,0.004882
5.133333,0.004238
5.166667,0.002752
5.200000,0.000681
5.233333,-0.001581
5.266667,-0.003600
5.300000,-0.004999
5.333333,-0.005555
5.366667,-0.005241
5.400000,-0.004228
5.433333,-0.002809
5.466667,-0.001310
5.500000,0.000010
5.533333,0.000996
5.566667,0.001594
5.600000,0.001818
5.633333,0.001702
5.666667,0.001283
5.700000,0.000603
5.733333,-0.000263
5.766667,-0.001184
5.800000,-0.001979
5.833333,-0.002447
5.866667,-0.002435
5.900000,-0.001893
5.933333,-0.000911
5.966667,0.000292
6.000000,0.001425
6.033333,0.002224
6.066667,0.002540
6.100000,0.002375
6.133333,0.001866
6.166667,0.001222
6.200000,0.000656
6.233333,0.000330
6.266667,0.000314
6.300000,0.000582
6.333333,0.001021
6.366667,0.001479
6.400000,0.001812
6.433333,0.001921
6.466667,0.001762
6.500000,0.001338
6.533333,0.000676
6.566667,-0.000170
6.600000,-0.001109
6.633333,-0.002003
6.666667,-0.002680
6.700000,-0.002976
6.733333,-0.002799
6.766667,-0.002190
6.800000,-0.001344
6.833333,-0.000540
6.866667,-0.000028
6.900000,0.000069
6.933333,-0.000220
6.966667,-0.000748
7.000000,-0.001307
7.033333,-0.001695
7.066667,-0.001766
7.100000,-0.001468
7.133333,-0.000847
7.166667,-0.000024
7.200000,0.000839
7.233333,0.001589
7.266667,0.002123
7.300000,0.002406
7.333333,0.002457
7.366667,0.002318
7.400000,0.002019
7.433333,0.001557
7.466667,0.000915
7.500000,0.000099
7.533333,-0.000818
7.566667,-0.001677
7.600000,-0.002261
7.633333,-0.002364
7.666667,-0.001884
7.700000,-0.000875
7.733333,0.000449
7.766667,0.001783
7.800000,0.002816
7.833333,0.003327
7.866667,0.003224
7.900000,0.002548
7.933333,0.001447
7.966667,0.000136
8.000000,-0.001144
8.033333,-0.002154
8.066667,-0.002702
8.100000,-0.002681
8.133333,-0.002111
8.166667,-0.001153
8.200000,-0.000074
8.233333,0.000813
8.266667,0.001238
8.300000,0.001060
8.333333,0.000322
8.366667,-0.000763
8.400000,-0.001869
8.433333,-0.002661
8.466667,-0.002892
8.500000,-0.002465
8.533333,-0.001467
8.566667,-0.000145
8.600000,0.001175
8.633333,0.002176
8.666667,0.002645
8.700000,0.002519
8.733333,0.001888
8.766667,0.000955
8.800000,-0.000029
8.833333,-0.000830
8.866667,-0.001299
8.900000,-0.001398
8.933333,-0.001200
8.966667,-0.000849
9.000000,-0.000491
9.033333,-0.000211
9.066667,-0.000008
9.100000,0.000195
9.133333,0.000490
9.166667,0.000929
9.200000,0.001491
9.233333,0.002093
9.266667,0.002620
9.300000,0.002965
9.333333,0.003041
9.366667,0.002799
9.400000,0.002235
9.433333,0.001392
9.466667,0.000362
9.500000,-0.000733
9.533333,-0.001753
9.566667,-0.002567
9.600000,-0.003074
9.633333,-0.003227
9.666667,-0.003054
9.700000,-0.002663
9.733333,-0.002206
9.766667,-0.001835
9.800000,-0.001652
9.833333,-0.001679
9.866667,-0.001852
9.900000,-0.002042
9.933333,-0.002098
9.966667,-0.001904
10.000000,-0.001418
10.033333,-0.000681
10.066667,0.000221
10.100000,0.001206
10.133333,0.002226
10.166667,0.003252
10.200000,0.004234
10.233333,0.005062
10.266667,0.005553
10.300000,0.005501
10.333333,0.004773
10.366667,0.003397
10.400000,0.001599
10.433333,-0.000261
10.466667,-0.001805
10.500000,-0.002753
10.533333,-0.002992
10.566667,-0.002578
10.600000,-0.001711
10.633333,-0.000690
10.666667,0.000160
10.700000,0.000569
10.733333,0.000412
10.766667,-0.000256
10.800000,-0.001211
10.833333,-0.002139
10.866667,-0.002754
10.900000,-0.002903
10.933333,-0.002599
10.966667,-0.001987
11.000000,-0.001259
11.033333,-0.000570
11.066667,-0.000001
11.100000,0.000434
11.133333,0.000748
11.166667,0.000950
11.200000,0.001025
11.233333,0.000950
11.266667,0.000719
11.300000,0.000373
11.333333,-0.000006
11.366667,-0.000317
11.400000,-0.000482
11.433333,-0.000474
11.466667,-0.000320
11.500000,-0.000083
11.533333,0.000159
11.566667,0.000345
11.600000,0.000451
11.633333,0.000508
11.666667,0.000589
11.700000,0.000787
11.733333,0.001168
11.766667,0.001741
11.800000,0.002433
11.833333,0.003082
11.866667,0.003471
11.900000,0.003390
11.933333,0.002729
11.966667,0.001549
12.000000,0.000080
12.033333,-0.001355
12.066667,-0.002466
12.100000,-0.003092
12.133333,-0.003224
12.166667,-0.002971
12.200000,-0.002490
12.233333,-0.001920
12.266667,-0.001339
12.300000,-0.000778
12.333333,-0.000255
12.366667,0.000181
12.400000,0.000427
12.433333,0.000363
12.466667,-0.000091
12.500000,-0.000913
12.533333,-0.001972
12.566667,-0.003038
12.600000,-0.003829
12.633333,-0.004051
12.666667,-0.003461
12.700000,-0.001942
12.733333,0.000401
12.766667,0.003196
12.800000,0.005855
12.833333,0.007735
12.866667,0.008338
12.900000,0.007470
12.933333,0.005287
12.966667,0.002256
13.000000,-0.000969
13.033333,-0.003712
13.066667,-0.005435
13.100000,-0.005866
13.133333,-0.005048
13.166667,-0.003322
13.200000,-0.001229
13.233333,0.000648
13.266667,0.001842
13.300000,0.002129
13.333333,0.001563
13.366667,0.000436
13.400000,-0.000814
13.433333,-0.001735
13.466667,-0.001989
13.500000,-0.001457
13.533333,-0.000289
13.566667,0.001132
13.600000,0.002306
13.633333,0.002796
13.666667,0.002395
13.700000,0.001226
13.733333,-0.000283
13.766667,-0.001564
13.800000,-0.002128
13.833333,-0.001740
13.866667,-0.000482
13.900000,0.001306
13.933333,0.003167
13.966667,0.004670
14.000000,0.005493
14.033333,0.005442
14.066667,0.004435
14.100000,0.002511
14.133333,-0.000147
14.166667,-0.003187
14.200000,-0.006117
14.233333,-0.008416
14.266667,-0.009664
14.300000,-0.009651
14.333333,-0.008402
14.366667,-0.006150
14.400000,-0.003280
14.433333,-0.000242
14.466667,0.002544
14.500000,0.004753
14.533333,0.006193
14.566667,0.006790
14.600000,0.006566
14.633333,0.005624
14.666667,0.004137
14.700000,0.002335
14.733333,0.000485
14.766667,-0.001151
14.800000,-0.002364
14.833333,-0.003025
14.866667,-0.003100
14.900000,-0.002643
14.933333,-0.001781
14.966667,-0.000693
15.000000,0.000414
15.033333,0.001346
15.066667,0.001957
15.100000,0.002185
15.133333,0.002070
15.166667,0.001725
15.200000,0.001293
15.233333,0.000889
15.266667,0.000576
15.300000,0.000366
15.333333,0.000245
15.366667,0.000200
15.400000,0.000228
15.433333,0.000319
15.466667,0.000425
15.500000,0.000458
15.533333,0.000308
15.566667,-0.000098
15.600000,-0.000749
15.633333,-0.001531
15.666667,-0.002255
15.700000,-0.002701
15.733333,-0.002688
15.766667,-0.002135
15.800000,-0.001113
15.833333,0.000154
15.866667,0.001338
15.900000,0.002098
15.933333,0.002167
15.966667,0.001433
16.000000,-0.000015
16.033333,-0.001878
16.066667,-0.003712
16.100000,-0.005037
16.133333,-0.005484
16.166667,-0.004907
16.200000,-0.003435
16.233333,-0.001436
16.266667,0.000594
16.300000,0.002185
16.333333,0.003054
16.366667,0.003182
16.400000,0.002808
16.433333,0.002318
16.466667,0.002097
16.500000,0.002387
16.533333,0.003210
16.566667,0.004351
16.600000,0.005434
16.633333,0.006036
16.666667,0.005820
16.700000,0.004641
16.733333,0.002603
16.766667,0.000039
16.800000,-0.002576
16.833333,-0.004767
16.866667,-0.006189
16.900000,-0.006687
16.933333,-0.006290
16.966667,-0.005163
17.000000,-0.003561
17.033333,-0.001778
17.066667,-0.000102
17.100000,0.001238
17.133333,0.002116
17.166667,0.002514
17.200000,0.002498
17.233333,0.002172
17.266667,0.001646
17.300000,0.001017
17.333333,0.000354
17.366667,-0.000325
17.400000,-0.001048
17.433333,-0.001860
17.466667,-0.002754
17.500000,-0.003627
17.533333,-0.004268
17.566667,-0.004412
17.600000,-0.003849
17.633333,-0.002531
17.666667,-0.000646
17.700000,0.001415
17.733333,0.003179
17.766667,0.004261
17.800000,0.004493
17.833333,0.003971
17.866667,0.003012
17.900000,0.002041
17.933333,0.001449
17.966667,0.001461
18.000000,0.002060
18.033333,0.002977
18.066667,0.003775
18.100000,0.003993
18.133333,0.003311
18.166667,0.001689
18.200000,-0.000592
18.233333,-0.002990
18.266667,-0.004879
18.300000,-0.005763
18.333333,-0.005464
18.366667,-0.004193
18.400000,-0.002458
18.433333,-0.000863
18.466667,0.000117
18.500000,0.000289
18.533333,-0.000219
18.566667,-0.001034
18.600000,-0.001694
18.633333,-0.001811
18.666667,-0.001212
18.700000,0.000013
18.733333,0.001553
18.766667,0.002991
18.800000,0.003939
18.833333,0.004136
18.866667,0.003500
18.900000,0.002125
18.933333,0.000250
18.966667,-0.001788
19.000000,-0.003611
19.033333,-0.004859
19.066667,-0.005250
19.100000,-0.004631
19.133333,-0.003036
19.166667,-0.000700
19.200000,0.001948
19.233333,0.004370
19.266667,0.006033
19.300000,0.006551
19.333333,0.005797
19.366667,0.003957
19.400000,0.001489
19.433333,-0.001003
19.466667,-0.002949
19.500000,-0.003978
19.533333,-0.004012
19.566667,-0.003262
19.600000,-0.002123
19.633333,-0.001012
19.666667,-0.000208
19.700000,0.000223
19.733333,0.000406
19.766667,0.000553
19.800000,0.000835
19.833333,0.001294
19.866667,0.001815
19.900000,0.002179
19.933333,0.002157
19.966667,0.001623
20.000000,0.000627
20.033333,-0.000595
20.066667,-0.001706
20.100000,-0.002387
20.133333,-0.002441
20.166667,-0.001863
20.200000,-0.000828
20.233333,0.000357
20.266667,0.001353
20.300000,0.001881
20.333333,0.001797
20.366667,0.001129
20.400000,0.000063
20.433333,-0.001118
20.466667,-0.002133
20.500000,-0.002776
20.533333,-0.002960
20.566667,-0.002711
20.600000,-0.002137
20.633333,-0.001391
20.666667,-0.000626
20.700000,0.000035
20.733333,0.000527
20.766667,0.000864
20.800000,0.001123
20.833333,0.001412
20.866667,0.001820
20.900000,0.002374
20.933333,0.003017
20.966667,0.003605
21.000000,0.003947
21.033333,0.003856
21.066667,0.003203
21.100000,0.001980
21.133333,0.000327
21.166667,-0.001463
21.200000,-0.003005
21.233333,-0.003937
21.266667,-0.004042
21.300000,-0.003327
21.333333,-0.002029
21.366667,-0.000540
21.400000,0.000721
21.433333,0.001417
21.466667,0.001399
21.500000,0.000738
21.533333,-0.000302
21.566667,-0.001363
21.600000,-0.002102
21.633333,-0.002300
21.666667,-0.001922
21.700000,-0.001123
21.733333,-0.000191
21.766667,0.000555
21.800000,0.000885
21.833333,0.000738
21.866667,0.000225
21.900000,-0.000427
21.933333,-0.000969
21.966667,-0.001214
22.000000,-0.001066
22.033333,-0.000525
22.066667,0.000339
22.100000,0.001404
22.133333,0.002507
22.166667,0.003452
22.200000,0.004034
22.233333,0.004085
22.266667,0.003542
22.300000,0.002476
22.333333,0.001091
22.366667,-0.000339
22.400000,-0.001545
22.433333,-0.002337
22.466667,-0.002646
22.500000,-0.002525
22.533333,-0.002129
22.566667,-0.001659
22.600000,-0.001288
22.633333,-0.001108
22.666667,-0.001112
22.700000,-0.001223
22.733333,-0.001339
22.766667,-0.001384
22.800000,-0.001325
22.833333,-0.001162
22.866667,-0.000906
22.900000,-0.000564
22.933333,-0.000140
22.966667,0.000357
23.000000,0.000918
23.033333,0.001528
23.066667,0.002163
23.100000,0.002771
23.133333,0.003272
23.166667,0.003563
23.200000,0.003551
23.233333,0.003184
23.266667,0.002467
23.300000,0.001463
23.333333,0.000288
23.366667,-0.000915
23.400000,-0.001989
23.433333,-0.002792
23.466667,-0.003221
23.500000,-0.003233
23.533333,-0.002860
23.566667,-0.002216
23.600000,-0.001470
23.633333,-0.000797
23.666667,-0.000322
23.700000,-0.000092
23.733333,-0.000080
23.766667,-0.000211
23.800000,-0.000396
23.833333,-0.000552
23.866667,-0.000611
23.900000,-0.000529
23.933333,-0.000290
23.966667,0.000084
24.000000,0.000533
24.033333,0.000980
24.066667,0.001362
24.100000,0.001654
24.133333,0.001874
24.166667,0.002064
24.200000,0.002247
24.233333,0.002388
24.266667,0.002381
24.300000,0.002078
24.333333,0.001355
24.366667,0.000188
24.400000,-0.001302
24.433333,-0.002852
24.466667,-0.004118
24.500000,-0.004779
24.533333,-0.004644
24.566667,-0.003721
24.600000,-0.002215
24.633333,-0.000458
24.666667,0.001192
24.700000,0.002451
24.733333,0.003169
24.766667,0.003346
24.800000,0.003089
24.833333,0.002557
24.866667,0.001891
24.900000,0.001186
24.933333,0.000492
24.966667,-0.000155
25.000000,-0.000706
25.033333,-0.001089
25.066667,-0.001240
25.100000,-0.001138
25.133333,-0.000834
25.166667,-0.000438
25.200000,-0.000085
25.233333,0.000116
25.266667,0.000102
25.300000,-0.000110
25.333333,-0.000424
25.366667,-0.000676
25.400000,-0.000694
25.433333,-0.000363
25.466667,0.000296
25.500000,0.001097
25.533333,0.001732
25.566667,0.001887
25.600000,0.001379
25.633333,0.000238
25.666667,-0.001292
25.700000,-0.002840
25.733333,-0.004038
25.766667,-0.004635
25.800000,-0.004552
25.833333,-0.003871
25.866667,-0.002758
25.900000,-0.001397
25.933333,0.000053
25.966667,0.001463
26.000000,0.002723
26.033333,0.003734
26.066667,0.004431
26.100000,0.004797
26.133333,0.004874
26.166667,0.004726
26.200000,0.004405
26.233333,0.003927
26.266667,0.003274
26.300000,0.002426
26.333333,0.001391
26.366667,0.000219
26.400000,-0.000999
26.433333,-0.002148
26.466667,-0.003131
26.500000,-0.003906
26.533333,-0.004491
26.566667,-0.004917
26.600000,-0.005168
26.633333,-0.005146
26.666667,-0.004710
26.700000,-0.003759
26.733333,-0.002318
26.766667,-0.000560
26.800000,0.001229
26.833333,0.002731
26.866667,0.003674
26.900000,0.003894
26.933333,0.003383
26.966667,0.002306
27.000000,0.000966
27.033333,-0.000278
27.066667,-0.001128
27.100000,-0.001433
27.133333,-0.001221
27.166667,-0.000663
27.200000,0.000011
27.233333,0.000611
27.266667,0.001055
27.300000,0.001375
27.333333,0.001664
27.366667,0.001984
27.400000,0.002320
27.433333,0.002576
27.466667,0.002613
27.500000,0.002318
27.533333,0.001651
27.566667,0.000669
27.600000,-0.000479
27.633333,-0.001601
27.666667,-0.002504
27.700000,-0.003046
27.733333,-0.003158
27.766667,-0.002855
27.800000,-0.002225
27.833333,-0.001413
27.866667,-0.000598
27.900000,0.000041
27.933333,0.000359
27.966667,0.000273
28.000000,-0.000204
28.033333,-0.000939
28.066667,-0.001691
28.100000,-0.002169
28.133333,-0.002144
28.166667,-0.001544
28.200000,-0.000488
28.233333,0.000754
28.266667,0.001860
28.300000,0.002567
28.333333,0.002756
28.366667,0.002490
28.400000,0.001977
28.433333,0.001483
28.466667,0.001212
28.500000,0.001217
28.533333,0.001397
28.566667,0.001571
28.600000,0.001579
28.633333,0.001356
28.666667,0.000935
28.700000,0.000416
28.733333,-0.000090
28.766667,-0.000498
28.800000,-0.000789
28.833333,-0.001015
28.866667,-0.001282
28.900000,-0.001694
28.933333,-0.002286
28.966667,-0.002970
29.000000,-0.003545
29.033333,-0.003750
29.066667,-0.003370
29.100000,-0.002320
29.133333,-0.000706
29.166667,0.001169
29.200000,0.002859
29.233333,0.003909
29.266667,0.004024
29.300000,0.003191
29.333333,0.001691
29.366667,-0.000012
29.400000,-0.001441
29.433333,-0.002253
29.466667,-0.002322
29.500000,-0.001730
29.533333,-0.000718
29.566667,0.000394
29.600000,0.001270
29.633333,0.001642
29.666667,0.001393
29.700000,0.000616
29.733333,-0.000406
29.766667,-0.001289
29.800000,-0.001685
29.833333,-0.001388
29.866667,-0.000404
29.900000,0.001048
29.933333,0.002590
29.966667,0.003801
30.000000,0.004339
30.033333,0.004041
30.066667,0.002958
30.100000,0.001330
30.133333,-0.000486
30.166667,-0.002130
30.200000,-0.003330
30.233333,-0.003957
30.266667,-0.004017
30.300000,-0.003601
30.333333,-0.002839
30.366667,-0.001877
30.400000,-0.000871
30.433333,0.000004
30.466667,0.000580
30.500000,0.000739
30.533333,0.000458
30.566667,-0.000152
30.600000,-0.000869
30.633333,-0.001414
30.666667,-0.001534
30.700000,-0.001077
30.733333,-0.000034
30.766667,0.001446
30.800000,0.003085
30.833333,0.004532
30.866667,0.005462
30.900000,0.005652
30.933333,0.005035
30.966667,0.003699
31.000000,0.001856
31.033333,-0.000200
31.066667,-0.002147
31.100000,-0.003700
31.133333,-0.004662
31.166667,-0.004947
31.200000,-0.004590
31.233333,-0.003744
31.266667,-0.002660
31.300000,-0.001626
31.333333,-0.000891
31.366667,-0.000573
31.400000,-0.000612
31.433333,-0.000791
31.466667,-0.000831
31.500000,-0.000516
31.533333,0.000213
31.566667,0.001232
31.600000,0.002290
31.633333,0.003104
31.666667,0.003459
31.700000,0.003272
31.733333,0.002602
31.766667,0.001626
31.800000,0.000587
31.833333,-0.000262
31.866667,-0.000716
31.900000,-0.000687
31.933333,-0.000237
31.966667,0.000439
32.000000,0.001084
32.033333,0.001475
32.066667,0.001492
32.100000,0.001152
32.133333,0.000584
32.166667,-0.000038
32.200000,-0.000566
32.233333,-0.000923
32.266667,-0.001111
32.300000,-0.001191
32.333333,-0.001253
32.366667,-0.001379
32.400000,-0.001618
32.433333,-0.001956
32.466667,-0.002315
32.500000,-0.002569
32.533333,-0.002590
32.566667,-0.002289
32.600000,-0.001654
32.633333,-0.000764
32.666667,0.000231
32.700000,0.001149
32.733333,0.001821
32.766667,0.002120
32.800000,0.001986
32.833333,0.001426
32.866667,0.000549
32.900000,-0.000429
32.933333,-0.001213
32.966667,-0.001518
33.000000,-0.001185
33.033333,-0.000251
33.066667,0.001047
33.100000,0.002342
33.133333,0.003264
33.166667,0.003570
33.200000,0.003222
33.233333,0.002386
33.266667,0.001346
33.300000,0.000390
33.333333,-0.000280
33.366667,-0.000594
33.400000,-0.000595
33.433333,-0.000403
33.466667,-0.000174
33.500000,-0.000057
33.533333,-0.000163
33.566667,-0.000528
33.600000,-0.001104
33.633333,-0.001760
33.666667,-0.002315
33.700000,-0.002582
33.733333,-0.002427
33.766667,-0.001814
33.800000,-0.000842
33.833333,0.000283
33.866667,0.001294
33.900000,0.001958
33.933333,0.002143
33.966667,0.001854
34.000000,0.001210
34.033333,0.000368
34.066667,-0.000547
34.100000,-0.001468
34.133333,-0.002353
34.166667,-0.003134
34.200000,-0.003681
34.233333,-0.003810
34.266667,-0.003326
34.300000,-0.002107
34.333333,-0.000211
34.366667,0.002075
34.400000,0.004261
34.433333,0.005792
34.466667,0.006244
34.500000,0.005476
34.533333,0.003694
34.566667,0.001382
34.600000,-0.000844
