Time_Sec,Amplitude
0.000000,-0.106095
0.033333,1.046828
0.066667,2.005080
0.100000,2.601688
0.133333,2.736465
0.166667,2.406246
0.200000,1.714074
0.233333,0.844528
0.266667,0.007819
0.300000,-0.627070
0.333333,-0.981075
0.366667,-1.073384
0.400000,-0.988103
0.433333,-0.820638
0.466667,-0.634291
0.500000,-0.447361
0.533333,-0.250132
0.566667,-0.034962
0.600000,0.180823
0.633333,0.352441
0.666667,0.426674
0.700000,0.371413
0.733333,0.198189
0.766667,-0.036186
0.800000,-0.250742
0.833333,-0.373489
0.866667,-0.370133
0.900000,-0.255384
0.933333,-0.083317
0.966667,0.076798
1.000000,0.167572
1.033333,0.163221
1.066667,0.076784
1.100000,-0.046016
1.133333,-0.144110
1.166667,-0.164160
1.200000,-0.081097
1.233333,0.091432
1.266667,0.304082
1.300000,0.487354
1.333333,0.575291
1.366667,0.529297
1.400000,0.352047
1.433333,0.085359
1.466667,-0.205514
1.500000,-0.452661
1.533333,-0.603307
1.566667,-0.630478
1.600000,-0.535627
1.633333,-0.344678
1.666667,-0.100485
1.700000,0.145820
1.733333,0.344189
1.766667,0.455662
1.800000,0.461021
1.833333,0.365020
1.866667,0.194823
1.900000,-0.006773
1.933333,-0.192196
1.966667,-0.321851
2.000000,-0.374538
2.033333,-0.351122
2.066667,-0.270399
2.100000,-0.159848
2.133333,-0.045391
2.166667,0.056136
2.200000,0.139100
2.233333,0.205583
2.266667,0.259137
2.300000,0.299697
2.333333,0.321731
2.366667,0.315946
2.400000,0.274161
2.433333,0.195523
2.466667,0.090317
2.500000,-0.021764
2.533333,-0.118341
2.566667,-0.182684
2.600000,-0.210213
2.633333,-0.210650
2.666667,-0.204111
2.700000,-0.211635
2.733333,-0.244153
2.766667,-0.295233
2.800000,-0.341022
2.833333,-0.348024
2.866667,-0.287014
2.900000,-0.148396
2.933333,0.048402
2.966667,0.257647
3.000000,0.422327
3.033333,0.495338
3.066667,0.457820
3.100000,0.326667
3.133333,0.147469
3.166667,-0.024001
3.200000,-0.142743
3.233333,-0.188799
3.266667,-0.170741
3.300000,-0.119039
3.333333,-0.071919
3.366667,-0.057838
3.400000,-0.080876
3.433333,-0.115674
3.466667,-0.115225
3.500000,-0.029898
3.533333,0.168238
3.566667,0.465236
3.600000,0.799667
3.633333,1.077406
3.666667,1.202767
3.700000,1.113022
3.733333,0.800789
3.766667,0.314228
3.800000,-0.263871
3.833333,-0.845194
3.866667,-1.356524
3.900000,-1.744083
3.933333,-1.968174
3.966667,-2.000827
4.000000,-1.832304
4.033333,-1.481088
4.066667,-0.996888
4.100000,-0.449877
4.133333,0.091786
4.166667,0.585146
4.200000,1.021417
4.233333,1.411609
4.266667,1.754479
4.300000,2.007477
4.333333,2.084852
4.366667,1.893326
4.400000,1.390588
4.433333,0.632610
4.466667,-0.221772
4.500000,-0.956782
4.533333,-1.376299
4.566667,-1.377444
4.600000,-0.990655
4.633333,-0.369697
4.666667,0.265451
4.700000,0.709757
4.733333,0.843699
4.766667,0.664284
4.800000,0.268625
4.833333,-0.195492
4.866667,-0.586787
4.900000,-0.812959
4.933333,-0.847154
4.966667,-0.720009
5.000000,-0.497489
5.033333,-0.255618
5.066667,-0.058966
5.100000,0.053952
5.133333,0.076363
5.166667,0.029451
5.200000,-0.048594
5.233333,-0.116561
5.266667,-0.143300
5.300000,-0.116553
5.333333,-0.044572
5.366667,0.050072
5.400000,0.141274
5.433333,0.209495
5.466667,0.247356
5.500000,0.259262
5.533333,0.255782
5.566667,0.245922
5.600000,0.232106
5.633333,0.210772
5.666667,0.177008
5.700000,0.129241
5.733333,0.071403
5.766667,0.012209
5.800000,-0.037887
5.833333,-0.070639
5.866667,-0.082580
5.900000,-0.074999
5.933333,-0.052496
5.966667,-0.021794
6.000000,0.009154
6.033333,0.032480
6.066667,0.041804
6.100000,0.033084
6.133333,0.005388
6.166667,-0.038011
6.200000,-0.089314
6.233333,-0.137788
6.266667,-0.172492
6.300000,-0.184542
6.333333,-0.168715
6.366667,-0.124910
6.400000,-0.059012
6.433333,0.017763
6.466667,0.090914
6.500000,0.145405
6.533333,0.169028
6.566667,0.156021
6.600000,0.109392
6.633333,0.040520
6.666667,-0.033643
6.700000,-0.094717
6.733333,-0.127929
6.766667,-0.127088
6.800000,-0.096979
6.833333,-0.051147
6.866667,-0.006060
6.900000,0.025333
6.933333,0.038195
6.966667,0.037088
7.000000,0.033112
7.033333,0.037667
7.066667,0.056028
7.100000,0.084105
7.133333,0.109372
7.166667,0.115062
7.200000,0.086540
7.233333,0.018228
7.266667,-0.081859
7.300000,-0.192413
7.333333,-0.283895
7.366667,-0.326613
7.400000,-0.300087
7.433333,-0.201370
7.466667,-0.048809
7.500000,0.121242
7.533333,0.263866
7.566667,0.338039
7.600000,0.319175
7.633333,0.209035
7.666667,0.039650
7.700000,-0.131631
7.733333,-0.236171
7.766667,-0.214598
7.800000,-0.039136
7.833333,0.269706
7.866667,0.640998
7.900000,0.970953
7.933333,1.156065
7.966667,1.128706
8.000000,0.879311
8.033333,0.454826
8.066667,-0.064970
8.100000,-0.598836
8.133333,-1.084762
8.166667,-1.481547
8.200000,-1.758731
8.233333,-1.889384
8.266667,-1.853544
8.300000,-1.648207
8.333333,-1.293907
8.366667,-0.830706
8.400000,-0.304247
8.433333,0.249491
8.466667,0.808888
8.500000,1.354337
8.533333,1.844932
8.566667,2.202095
8.600000,2.319516
8.633333,2.105206
8.666667,1.538474
8.700000,0.708238
8.733333,-0.195677
8.766667,-0.940893
8.800000,-1.335492
8.833333,-1.298923
8.866667,-0.891071
8.900000,-0.287757
8.933333,0.287335
8.966667,0.645496
9.000000,0.695045
9.033333,0.458720
9.066667,0.046419
9.100000,-0.396774
9.133333,-0.742465
9.166667,-0.913275
9.200000,-0.893410
9.233333,-0.718949
9.266667,-0.456758
9.300000,-0.180947
9.333333,0.047256
9.366667,0.192611
9.400000,0.249220
9.433333,0.234084
9.466667,0.175123
9.500000,0.099932
9.533333,0.029276
9.566667,-0.024136
9.600000,-0.053308
9.633333,-0.054029
9.666667,-0.024550
9.700000,0.031558
9.733333,0.102629
9.766667,0.170178
9.800000,0.214733
9.833333,0.223149
9.866667,0.193705
9.900000,0.136727
9.933333,0.070392
9.966667,0.013718
10.000000,-0.019591
10.033333,-0.023993
10.066667,-0.002259
10.100000,0.035527
10.133333,0.074176
10.166667,0.097565
10.200000,0.093874
10.233333,0.059719
10.266667,0.001661
10.300000,-0.065581
10.333333,-0.124298
10.366667,-0.160664
10.400000,-0.169563
10.433333,-0.154480
10.466667,-0.123273
10.500000,-0.083205
10.533333,-0.037984
10.566667,0.012101
10.600000,0.067009
10.633333,0.122536
10.666667,0.168117
10.700000,0.189294
10.733333,0.173627
10.766667,0.116550
10.800000,0.024502
10.833333,-0.085709
10.866667,-0.191416
10.900000,-0.271075
10.933333,-0.310381
10.966667,-0.304704
11.000000,-0.257871
11.033333,-0.179183
11.066667,-0.079975
11.100000,0.029480
11.133333,0.141394
11.166667,0.249446
11.200000,0.346411
11.233333,0.422259
11.266667,0.463502
11.300000,0.454424
11.333333,0.381535
11.366667,0.240988
11.400000,0.044985
11.433333,-0.177718
11.466667,-0.388349
11.500000,-0.548757
11.533333,-0.631949
11.566667,-0.628774
11.600000,-0.548133
11.633333,-0.410918
11.666667,-0.241588
11.700000,-0.062121
11.733333,0.109604
11.766667,0.258043
11.800000,0.367237
11.833333,0.420048
11.866667,0.402127
11.900000,0.310444
11.933333,0.161890
11.966667,-0.003815
12.000000,-0.129982
12.033333,-0.157514
12.066667,-0.045713
12.100000,0.206818
12.133333,0.551190
12.166667,0.895883
12.200000,1.133550
12.233333,1.177395
12.266667,0.991467
12.300000,0.600633
12.333333,0.075821
12.366667,-0.495209
12.400000,-1.033052
12.433333,-1.476031
12.466667,-1.777478
12.500000,-1.903216
12.533333,-1.836476
12.566667,-1.586748
12.600000,-1.193282
12.633333,-0.716590
12.666667,-0.219096
12.700000,0.255753
12.733333,0.692871
12.766667,1.095300
12.800000,1.458399
12.833333,1.744658
12.866667,1.879258
12.900000,1.777201
12.933333,1.392864
12.966667,0.764360
13.000000,0.023214
13.033333,-0.641735
13.066667,-1.051875
13.100000,-1.107704
13.133333,-0.828835
13.166667,-0.346884
13.200000,0.147335
13.233333,0.479596
13.266667,0.556222
13.300000,0.388218
13.333333,0.070189
13.366667,-0.268972
13.400000,-0.517812
13.433333,-0.616012
13.466667,-0.562073
13.500000,-0.399492
13.533333,-0.193068
13.566667,-0.005952
13.600000,0.117327
13.633333,0.160031
13.666667,0.133171
13.700000,0.066497
13.733333,-0.005466
13.766667,-0.056452
13.800000,-0.076268
13.833333,-0.071489
13.866667,-0.058916
13.900000,-0.054613
13.933333,-0.064446
13.966667,-0.081382
14.000000,-0.090136
14.033333,-0.075622
14.066667,-0.030865
14.100000,0.039000
14.133333,0.118405
14.166667,0.187631
14.200000,0.229778
14.233333,0.235041
14.266667,0.202128
14.300000,0.138315
14.333333,0.058343
14.366667,-0.018572
14.400000,-0.073304
14.433333,-0.091858
14.466667,-0.070007
14.500000,-0.016038
14.533333,0.050829
14.566667,0.107203
14.600000,0.134506
14.633333,0.125560
14.666667,0.086185
14.700000,0.031717
14.733333,-0.020214
14.766667,-0.057638
14.800000,-0.078543
14.833333,-0.089114
14.866667,-0.097973
14.900000,-0.110546
14.933333,-0.126048
14.966667,-0.137474
15.000000,-0.134471
15.033333,-0.108148
15.066667,-0.055606
15.100000,0.017797
15.133333,0.098599
15.166667,0.167495
15.200000,0.204223
15.233333,0.194722
15.266667,0.137516
15.300000,0.045660
15.333333,-0.056803
15.366667,-0.142333
15.400000,-0.188921
15.433333,-0.187521
15.466667,-0.144311
15.500000,-0.076558
15.533333,-0.004996
15.566667,0.052852
15.600000,0.086230
15.633333,0.091709
15.666667,0.071464
15.700000,0.030445
15.733333,-0.025489
15.766667,-0.089417
15.800000,-0.152556
15.833333,-0.204570
15.866667,-0.234822
15.900000,-0.233685
15.933333,-0.194373
15.966667,-0.115942
16.000000,-0.006181
16.033333,0.117846
16.066667,0.232609
16.100000,0.313815
16.133333,0.344081
16.166667,0.320449
16.200000,0.258091
16.233333,0.187559
16.266667,0.146206
16.300000,0.166272
16.333333,0.262098
16.366667,0.420212
16.400000,0.597989
16.433333,0.734666
16.466667,0.771747
16.500000,0.673839
16.533333,0.440203
16.566667,0.101480
16.600000,-0.296312
16.633333,-0.710254
16.666667,-1.108854
16.700000,-1.465932
16.733333,-1.748738
16.766667,-1.914066
16.800000,-1.918534
16.833333,-1.737029
16.866667,-1.377134
16.900000,-0.880128
16.933333,-0.307219
16.966667,0.281397
17.000000,0.841943
17.033333,1.347060
17.066667,1.771239
17.100000,2.074617
17.133333,2.202039
17.166667,2.104887
17.200000,1.774800
17.233333,1.265662
17.266667,0.685221
17.300000,0.157684
17.333333,-0.222896
17.366667,-0.424823
17.400000,-0.482576
17.433333,-0.472405
17.466667,-0.472591
17.500000,-0.528700
17.533333,-0.640697
17.566667,-0.774224
17.600000,-0.883456
17.633333,-0.930261
17.666667,-0.893159
17.700000,-0.768643
17.733333,-0.569745
17.766667,-0.323945
17.800000,-0.069385
17.833333,0.152613
17.866667,0.308796
17.900000,0.384833
17.933333,0.388986
17.966667,0.345168
18.000000,0.279835
18.033333,0.211541
18.066667,0.148583
18.100000,0.093237
18.133333,0.047405
18.166667,0.015152
18.200000,0.000754
18.233333,0.004557
18.266667,0.021176
18.300000,0.042325
18.333333,0.061801
18.366667,0.078147
18.400000,0.093181
18.433333,0.108250
18.466667,0.121038
18.500000,0.124915
18.533333,0.111662
18.566667,0.076479
18.600000,0.022080
18.633333,-0.041020
18.666667,-0.098011
18.700000,-0.135043
18.733333,-0.144340
18.766667,-0.127481
18.800000,-0.094841
18.833333,-0.060689
18.866667,-0.036651
18.900000,-0.027330
18.933333,-0.029759
18.966667,-0.035912
19.000000,-0.036891
19.033333,-0.027234
19.066667,-0.007238
19.100000,0.017921
19.133333,0.041307
19.166667,0.057601
19.200000,0.065397
19.233333,0.067485
19.266667,0.068419
19.300000,0.070434
19.333333,0.071089
19.366667,0.064869
19.400000,0.047221
19.433333,0.017822
19.466667,-0.018413
19.500000,-0.052330
19.533333,-0.073368
19.566667,-0.073712
19.600000,-0.051859
19.633333,-0.013708
19.666667,0.028996
19.700000,0.062004
19.733333,0.073049
19.766667,0.056306
19.800000,0.014603
19.833333,-0.041892
19.866667,-0.099240
19.900000,-0.143675
19.933333,-0.165457
19.966667,-0.162308
20.000000,-0.140498
20.033333,-0.111912
20.066667,-0.088094
20.100000,-0.074347
20.133333,-0.066638
20.166667,-0.052958
20.200000,-0.019494
20.233333,0.040597
20.266667,0.120626
20.300000,0.200172
20.333333,0.251615
20.366667,0.250632
20.400000,0.187009
20.433333,0.071784
20.466667,-0.062961
20.500000,-0.172477
20.533333,-0.212521
20.566667,-0.152652
20.600000,0.013313
20.633333,0.261740
20.666667,0.541350
20.700000,0.784897
20.733333,0.927953
20.766667,0.928090
20.800000,0.776306
20.833333,0.495118
20.866667,0.124575
20.900000,-0.294203
20.933333,-0.725998
20.966667,-1.135754
21.000000,-1.479586
21.033333,-1.705389
21.066667,-1.766646
21.100000,-1.641045
21.133333,-1.341476
21.166667,-0.911943
21.200000,-0.410098
21.233333,0.113597
21.266667,0.626997
21.300000,1.109909
21.333333,1.534390
21.366667,1.846903
21.400000,1.969850
21.433333,1.829985
21.466667,1.402840
21.500000,0.747371
21.533333,0.006271
21.566667,-0.634155
21.600000,-1.008377
21.633333,-1.032685
21.666667,-0.737435
21.700000,-0.256238
21.733333,0.225359
21.766667,0.540798
21.800000,0.601504
21.833333,0.418624
21.866667,0.082692
21.900000,-0.283083
21.933333,-0.571748
21.966667,-0.724270
22.000000,-0.736008
22.033333,-0.642180
22.066667,-0.494110
22.100000,-0.337971
22.133333,-0.202388
22.166667,-0.095960
22.200000,-0.012793
22.233333,0.057807
22.266667,0.122580
22.300000,0.180270
22.333333,0.222761
22.366667,0.239789
22.400000,0.225396
22.433333,0.183553
22.466667,0.129322
22.500000,0.083605
22.533333,0.063948
22.566667,0.076312
22.600000,0.111602
22.633333,0.148328
22.666667,0.160975
22.700000,0.131275
22.733333,0.057221
22.766667,-0.044729
22.800000,-0.145055
22.833333,-0.211674
22.866667,-0.221820
22.900000,-0.171150
22.933333,-0.075981
22.966667,0.032805
23.000000,0.121275
23.033333,0.164101
23.066667,0.152246
23.100000,0.094767
23.133333,0.014470
23.166667,-0.060860
23.200000,-0.107864
23.233333,-0.114037
23.266667,-0.079893
23.300000,-0.017313
23.333333,0.055242
23.366667,0.119086
23.400000,0.160314
23.433333,0.171531
23.466667,0.151216
23.500000,0.102848
23.533333,0.034296
23.566667,-0.043261
23.600000,-0.117040
23.633333,-0.174697
23.666667,-0.206949
23.700000,-0.210407
23.733333,-0.188653
23.766667,-0.150039
23.800000,-0.103411
23.833333,-0.054588
23.866667,-0.005364
23.900000,0.044845
23.933333,0.095428
23.966667,0.141019
24.000000,0.170927
24.033333,0.173041
24.066667,0.140089
24.100000,0.074418
24.133333,-0.011003
24.166667,-0.095711
24.200000,-0.158283
24.233333,-0.184041
24.266667,-0.170127
24.300000,-0.125395
24.333333,-0.066003
24.366667,-0.009502
24.400000,0.030684
24.433333,0.049174
24.466667,0.049381
24.500000,0.040369
24.533333,0.031583
24.566667,0.028363
24.600000,0.029959
24.633333,0.030512
24.666667,0.023108
24.700000,0.005639
24.733333,-0.014722
24.766667,-0.021253
24.800000,0.008119
24.833333,0.093343
24.866667,0.242542
24.900000,0.442520
24.933333,0.654856
24.966667,0.822663
25.000000,0.887770
25.033333,0.811498
25.066667,0.589055
25.100000,0.249803
25.133333,-0.157001
25.166667,-0.581687
25.200000,-0.985515
25.233333,-1.337826
25.266667,-1.606055
25.300000,-1.751625
25.333333,-1.738238
25.366667,-1.547602
25.400000,-1.191546
25.433333,-0.711852
25.466667,-0.166822
25.500000,0.387839
25.533333,0.911585
25.566667,1.376162
25.600000,1.749516
25.633333,1.980315
25.666667,2.000306
25.700000,1.752037
25.733333,1.230686
25.766667,0.514034
25.800000,-0.242974
25.833333,-0.852960
25.866667,-1.161728
25.900000,-1.105960
25.933333,-0.738366
25.966667,-0.208812
26.000000,0.292148
26.033333,0.603669
26.066667,0.647924
26.100000,0.445017
26.133333,0.089339
26.166667,-0.295255
26.200000,-0.599851
26.233333,-0.759329
26.266667,-0.760454
26.300000,-0.632699
26.333333,-0.430142
26.366667,-0.212329
26.400000,-0.028583
26.433333,0.092016
26.466667,0.143401
26.500000,0.138130
26.533333,0.098840
26.566667,0.049481
26.600000,0.008640
26.633333,-0.014146
26.666667,-0.018369
26.700000,-0.009074
26.733333,0.007842
26.766667,0.028986
26.800000,0.054595
26.833333,0.087544
26.866667,0.130244
26.900000,0.180346
26.933333,0.228088
26.966667,0.257803
27.000000,0.253203
27.033333,0.203901
27.066667,0.110738
27.100000,-0.011922
27.133333,-0.138556
27.166667,-0.239436
27.200000,-0.289435
27.233333,-0.275198
27.266667,-0.198839
27.300000,-0.077639
27.333333,0.060535
27.366667,0.185112
27.400000,0.270892
27.433333,0.303208
27.466667,0.279607
27.500000,0.209074
27.533333,0.109140
27.566667,0.000994
27.600000,-0.096018
27.633333,-0.168666
27.666667,-0.212117
27.700000,-0.229902
27.733333,-0.230894
27.766667,-0.223733
27.800000,-0.211559
27.833333,-0.190324
27.866667,-0.151501
27.900000,-0.087526
27.933333,0.002427
27.966667,0.108909
28.000000,0.213221
28.033333,0.293212
28.066667,0.330950
28.100000,0.318533
28.133333,0.260248
28.166667,0.170994
28.200000,0.071268
28.233333,-0.019876
28.266667,-0.090669
28.300000,-0.138596
28.333333,-0.168591
28.366667,-0.189195
28.400000,-0.207857
28.433333,-0.226542
28.466667,-0.239901
28.500000,-0.237707
28.533333,-0.210466
28.566667,-0.155100
28.600000,-0.078061
28.633333,0.005512
28.666667,0.076826
28.700000,0.120861
28.733333,0.132301
28.766667,0.116752
28.800000,0.087289
28.833333,0.058626
28.866667,0.041191
28.900000,0.037101
28.933333,0.040295
28.966667,0.041583
29.000000,0.036250
29.033333,0.030226
29.066667,0.041689
29.100000,0.096345
29.133333,0.215997
29.166667,0.403525
29.200000,0.631775
29.233333,0.844343
29.266667,0.970692
29.300000,0.950363
29.333333,0.755593
29.366667,0.401228
29.400000,-0.062965
29.433333,-0.571521
29.466667,-1.060810
29.500000,-1.475883
29.533333,-1.769236
29.566667,-1.900769
29.600000,-1.844328
29.633333,-1.597705
29.666667,-1.188404
29.700000,-0.669364
29.733333,-0.104715
29.766667,0.447798
29.800000,0.947611
29.833333,1.368197
29.866667,1.682009
29.900000,1.845808
29.933333,1.802396
29.966667,1.506488
30.000000,0.964573
30.033333,0.263513
30.066667,-0.435823
30.100000,-0.944662
30.133333,-1.114278
30.166667,-0.896302
30.200000,-0.368652
30.233333,0.286501
30.266667,0.846881
30.300000,1.130524
30.333333,1.057354
30.366667,0.666718
30.400000,0.089268
30.433333,-0.507875
30.466667,-0.977250
30.500000,-1.229155
30.533333,-1.243674
30.566667,-1.059802
30.600000,-0.751761
30.633333,-0.403079
30.666667,-0.085184
30.700000,0.156170
30.733333,0.305062
30.766667,0.370696
30.800000,0.377048
30.833333,0.351091
30.866667,0.312889
30.900000,0.270228
30.933333,0.219829
30.966667,0.154325
31.000000,0.070435
31.033333,-0.026458
31.066667,-0.122592
31.100000,-0.199474
31.133333,-0.239237
31.166667,-0.230305
31.200000,-0.171389
31.233333,-0.072429
31.266667,0.047159
31.300000,0.161976
31.333333,0.245681
31.366667,0.277254
31.400000,0.246918
31.433333,0.159856
31.466667,0.036870
31.500000,-0.088794
31.533333,-0.179506
31.566667,-0.205178
31.600000,-0.154583
31.633333,-0.040776
31.666667,0.101795
31.700000,0.227623
31.733333,0.294971
31.766667,0.280304
31.800000,0.186316
31.833333,0.040025
31.866667,-0.117424
31.900000,-0.244241
31.933333,-0.309931
31.966667,-0.302292
32.000000,-0.227733
32.033333,-0.106191
32.066667,0.035284
32.100000,0.167183
32.133333,0.261245
32.166667,0.295594
32.200000,0.261115
32.233333,0.166029
32.266667,0.035528
32.300000,-0.094930
32.333333,-0.191505
32.366667,-0.234455
32.400000,-0.224636
32.433333,-0.180302
32.466667,-0.126703
32.500000,-0.084814
32.533333,-0.064393
32.566667,-0.063186
32.600000,-0.071272
32.633333,-0.077532
32.666667,-0.074446
32.700000,-0.059417
32.733333,-0.033948
32.766667,-0.002603
32.800000,0.028295
32.833333,0.053017
32.866667,0.069044
32.900000,0.078229
32.933333,0.085899
32.966667,0.098291
33.000000,0.118876
33.033333,0.144953
33.066667,0.167008
33.100000,0.172002
33.133333,0.148699
33.166667,0.092270
33.200000,0.007191
33.233333,-0.091477
33.266667,-0.179227
33.300000,-0.226427
33.333333,-0.205150
33.366667,-0.097216
33.400000,0.097469
33.433333,0.354415
33.466667,0.624376
33.500000,0.843108
33.533333,0.949420
33.566667,0.904306
33.600000,0.702318
33.633333,0.369571
33.666667,-0.049893
33.700000,-0.509697
33.733333,-0.967424
33.766667,-1.379280
33.800000,-1.692992
33.833333,-1.851436
33.866667,-1.809654
33.900000,-1.555777
33.933333,-1.122308
33.966667,-0.579507
34.000000,-0.012227
34.033333,0.509039
34.066667,0.947388
34.100000,1.297367
34.133333,1.562336
34.166667,1.726543
34.200000,1.743704
34.233333,1.555899
34.266667,1.136241
34.300000,0.529350
34.333333,-0.139280
34.366667,-0.696644
34.400000,-0.985430
34.433333,-0.928425
34.466667,-0.564737
34.500000,-0.039813
34.533333,0.449136
34.566667,0.729259
34.600000,0.714967
34.633333,0.430387
34.666667,-0.013286
