Time_Sec,Amplitude
0.000000,0.000012
0.033333,-0.000266
0.066667,-0.000494
0.100000,-0.000634
0.133333,-0.000670
0.166667,-0.000609
0.200000,-0.000476
0.233333,-0.000308
0.266667,-0.000143
0.300000,-0.000014
0.333333,0.000060
0.366667,0.000077
0.400000,0.000052
0.433333,0.000006
0.466667,-0.000035
0.500000,-0.000055
0.533333,-0.000047
0.566667,-0.000016
0.600000,0.000026
0.633333,0.000061
0.666667,0.000077
0.700000,0.000070
0.733333,0.000046
0.766667,0.000016
0.800000,-0.000006
0.833333,-0.000011
0.866667,0.000003
0.900000,0.000034
0.933333,0.000069
0.966667,0.000098
1.000000,0.000111
1.033333,0.000105
1.066667,0.000086
1.100000,0.000063
1.133333,0.000043
1.166667,0.000033
1.200000,0.000034
1.233333,0.000043
1.266667,0.000051
1.300000,0.000049
1.333333,0.000034
1.366667,0.000007
1.400000,-0.000026
1.433333,-0.000054
1.466667,-0.000070
1.500000,-0.000071
1.533333,-0.000058
1.566667,-0.000039
1.600000,-0.000022
1.633333,-0.000017
1.666667,-0.000028
1.700000,-0.000051
1.733333,-0.000077
1.766667,-0.000095
1.800000,-0.000095
1.833333,-0.000071
1.866667,-0.000025
1.900000,0.000034
1.933333,0.000092
1.966667,0.000135
2.000000,0.000150
2.033333,0.000135
2.066667,0.000095
2.100000,0.000042
2.133333,-0.000008
2.166667,-0.000044
2.200000,-0.000058
2.233333,-0.000052
2.266667,-0.000036
2.300000,-0.000020
2.333333,-0.000014
2.366667,-0.000023
2.400000,-0.000041
2.433333,-0.000062
2.466667,-0.000075
2.500000,-0.000072
2.533333,-0.000052
2.566667,-0.000019
2.600000,0.000019
2.633333,0.000050
2.666667,0.000066
2.700000,0.000064
2.733333,0.000048
2.766667,0.000025
2.800000,0.000003
2.833333,-0.000012
2.866667,-0.000018
2.900000,-0.000018
2.933333,-0.000016
2.966667,-0.000019
3.000000,-0.000028
3.033333,-0.000041
3.066667,-0.000051
3.100000,-0.000049
3.133333,-0.000030
3.166667,0.000006
3.200000,0.000052
3.233333,0.000097
3.266667,0.000128
3.300000,0.000135
3.333333,0.000112
3.366667,0.000064
3.400000,0.000005
3.433333,-0.000050
3.466667,-0.000087
3.500000,-0.000096
3.533333,-0.000077
3.566667,-0.000038
3.600000,0.000009
3.633333,0.000045
3.666667,0.000060
3.700000,0.000050
3.733333,0.000020
3.766667,-0.000016
3.800000,-0.000045
3.833333,-0.000054
3.866667,-0.000043
3.900000,-0.000016
3.933333,0.000014
3.966667,0.000036
4.000000,0.000039
4.033333,0.000021
4.066667,-0.000010
4.100000,-0.000043
4.133333,-0.000067
4.166667,-0.000072
4.200000,-0.000059
4.233333,-0.000033
4.266667,-0.000005
4.300000,0.000014
4.333333,0.000016
4.366667,0.000002
4.400000,-0.000021
4.433333,-0.000041
4.466667,-0.000047
4.500000,-0.000033
4.533333,0.000001
4.566667,0.000047
4.600000,0.000093
4.633333,0.000124
4.666667,0.000132
4.700000,0.000114
4.733333,0.000077
4.766667,0.000030
4.800000,-0.000016
4.833333,-0.000051
4.866667,-0.000072
4.900000,-0.000077
4.933333,-0.000072
4.966667,-0.000061
5.000000,-0.000050
5.033333,-0.000042
5.066667,-0.000034
5.100000,-0.000023
5.133333,-0.000005
5.166667,0.000022
5.200000,0.000053
5.233333,0.000081
5.266667,0.000098
5.300000,0.000096
5.333333,0.000072
5.366667,0.000030
5.400000,-0.000017
5.433333,-0.000059
5.466667,-0.000083
5.500000,-0.000084
5.533333,-0.000063
5.566667,-0.000029
5.600000,0.000007
5.633333,0.000031
5.666667,0.000035
5.700000,0.000020
5.733333,-0.000006
5.766667,-0.000033
5.800000,-0.000049
5.833333,-0.000048
5.866667,-0.000029
5.900000,0.000002
5.933333,0.000032
5.966667,0.000049
6.000000,0.000047
6.033333,0.000025
6.066667,-0.000009
6.100000,-0.000043
6.133333,-0.000064
6.166667,-0.000064
6.200000,-0.000041
6.233333,-0.000004
6.266667,0.000038
6.300000,0.000072
6.333333,0.000088
6.366667,0.000083
6.400000,0.000060
6.433333,0.000029
6.466667,-0.000001
6.500000,-0.000020
6.533333,-0.000026
6.566667,-0.000020
6.600000,-0.000008
6.633333,0.000001
6.666667,0.000000
6.700000,-0.000010
6.733333,-0.000027
6.766667,-0.000042
6.800000,-0.000048
6.833333,-0.000041
6.866667,-0.000023
6.900000,0.000001
6.933333,0.000023
6.966667,0.000035
7.000000,0.000032
7.033333,0.000017
7.066667,-0.000005
7.100000,-0.000025
7.133333,-0.000034
7.166667,-0.000028
7.200000,-0.000010
7.233333,0.000015
7.266667,0.000036
7.300000,0.000045
7.333333,0.000037
7.366667,0.000014
7.400000,-0.000015
7.433333,-0.000038
7.466667,-0.000046
7.500000,-0.000033
7.533333,-0.000002
7.566667,0.000036
7.600000,0.000069
7.633333,0.000083
7.666667,0.000072
7.700000,0.000036
7.733333,-0.000013
7.766667,-0.000061
7.800000,-0.000092
7.833333,-0.000098
7.866667,-0.000075
7.900000,-0.000032
7.933333,0.000017
7.966667,0.000058
8.000000,0.000077
8.033333,0.000070
8.066667,0.000042
8.100000,0.000004
8.133333,-0.000031
8.166667,-0.000052
8.200000,-0.000053
8.233333,-0.000039
8.266667,-0.000015
8.300000,0.000006
8.333333,0.000016
8.366667,0.000012
8.400000,-0.000004
8.433333,-0.000024
8.466667,-0.000037
8.500000,-0.000036
8.533333,-0.000018
8.566667,0.000012
8.600000,0.000045
8.633333,0.000069
8.666667,0.000075
8.700000,0.000061
8.733333,0.000033
8.766667,0.000003
8.800000,-0.000018
8.833333,-0.000021
8.866667,-0.000006
8.900000,0.000021
8.933333,0.000047
8.966667,0.000059
9.000000,0.000046
9.033333,0.000008
9.066667,-0.000046
9.100000,-0.000102
9.133333,-0.000141
9.166667,-0.000152
9.200000,-0.000131
9.233333,-0.000084
9.266667,-0.000026
9.300000,0.000028
9.333333,0.000063
9.366667,0.000075
9.400000,0.000068
9.433333,0.000051
9.466667,0.000037
9.500000,0.000032
9.533333,0.000039
9.566667,0.000053
9.600000,0.000067
9.633333,0.000069
9.666667,0.000057
9.700000,0.000029
9.733333,-0.000006
9.766667,-0.000037
9.800000,-0.000054
9.833333,-0.000052
9.866667,-0.000032
9.900000,-0.000001
9.933333,0.000029
9.966667,0.000045
10.000000,0.000041
10.033333,0.000015
10.066667,-0.000022
10.100000,-0.000060
10.133333,-0.000085
10.166667,-0.000091
10.200000,-0.000076
10.233333,-0.000047
10.266667,-0.000013
10.300000,0.000013
10.333333,0.000024
10.366667,0.000019
10.400000,0.000004
10.433333,-0.000013
10.466667,-0.000020
10.500000,-0.000014
10.533333,0.000006
10.566667,0.000034
10.600000,0.000057
10.633333,0.000069
10.666667,0.000061
10.700000,0.000036
10.733333,0.000002
10.766667,-0.000030
10.800000,-0.000051
10.833333,-0.000053
10.866667,-0.000039
10.900000,-0.000013
10.933333,0.000014
10.966667,0.000033
11.000000,0.000038
11.033333,0.000028
11.066667,0.000009
11.100000,-0.000008
11.133333,-0.000016
11.166667,-0.000010
11.200000,0.000011
11.233333,0.000038
11.266667,0.000061
11.300000,0.000069
11.333333,0.000056
11.366667,0.000023
11.400000,-0.000022
11.433333,-0.000065
11.466667,-0.000092
11.500000,-0.000095
11.533333,-0.000071
11.566667,-0.000030
11.600000,0.000016
11.633333,0.000050
11.666667,0.000063
11.700000,0.000052
11.733333,0.000024
11.766667,-0.000009
11.800000,-0.000033
11.833333,-0.000038
11.866667,-0.000025
11.900000,0.000001
11.933333,0.000026
11.966667,0.000038
12.000000,0.000029
12.033333,0.000001
12.066667,-0.000037
12.100000,-0.000071
12.133333,-0.000087
12.166667,-0.000079
12.200000,-0.000047
12.233333,-0.000000
12.266667,0.000046
12.300000,0.000078
12.333333,0.000086
12.366667,0.000069
12.400000,0.000035
12.433333,-0.000004
12.466667,-0.000035
12.500000,-0.000049
12.533333,-0.000043
12.566667,-0.000022
12.600000,0.000005
12.633333,0.000027
12.666667,0.000038
12.700000,0.000036
12.733333,0.000026
12.766667,0.000017
12.800000,0.000015
12.833333,0.000022
12.866667,0.000037
12.900000,0.000051
12.933333,0.000055
12.966667,0.000043
13.000000,0.000011
13.033333,-0.000036
13.066667,-0.000084
13.100000,-0.000119
13.133333,-0.000129
13.166667,-0.000108
13.200000,-0.000062
13.233333,-0.000003
13.266667,0.000051
13.300000,0.000083
13.333333,0.000084
13.366667,0.000055
13.400000,0.000008
13.433333,-0.000041
13.466667,-0.000075
13.500000,-0.000081
13.533333,-0.000059
13.566667,-0.000015
13.600000,0.000034
13.633333,0.000073
13.666667,0.000089
13.700000,0.000080
13.733333,0.000051
13.766667,0.000016
13.800000,-0.000011
13.833333,-0.000021
13.866667,-0.000012
13.900000,0.000010
13.933333,0.000033
13.966667,0.000047
14.000000,0.000043
14.033333,0.000021
14.066667,-0.000012
14.100000,-0.000047
14.133333,-0.000072
14.166667,-0.000079
14.200000,-0.000069
14.233333,-0.000044
14.266667,-0.000013
14.300000,0.000014
14.333333,0.000029
14.366667,0.000030
14.400000,0.000020
14.433333,0.000003
14.466667,-0.000012
14.500000,-0.000019
14.533333,-0.000016
14.566667,-0.000005
14.600000,0.000008
14.633333,0.000017
14.666667,0.000017
14.700000,0.000007
14.733333,-0.000007
14.766667,-0.000019
14.800000,-0.000022
14.833333,-0.000013
14.866667,0.000007
14.900000,0.000032
14.933333,0.000052
14.966667,0.000060
15.000000,0.000050
15.033333,0.000025
15.066667,-0.000008
15.100000,-0.000037
15.133333,-0.000054
15.166667,-0.000054
15.200000,-0.000038
15.233333,-0.000014
15.266667,0.000010
15.300000,0.000025
15.333333,0.000024
15.366667,0.000011
15.400000,-0.000008
15.433333,-0.000023
15.466667,-0.000025
15.500000,-0.000010
15.533333,0.000017
15.566667,0.000047
15.600000,0.000070
15.633333,0.000074
15.666667,0.000057
15.700000,0.000022
15.733333,-0.000020
15.766667,-0.000055
15.800000,-0.000073
15.833333,-0.000067
15.866667,-0.000042
15.900000,-0.000007
15.933333,0.000025
15.966667,0.000040
16.000000,0.000032
16.033333,0.000002
16.066667,-0.000040
16.100000,-0.000081
16.133333,-0.000105
16.166667,-0.000103
16.200000,-0.000074
16.233333,-0.000026
16.266667,0.000028
16.300000,0.000071
16.333333,0.000093
16.366667,0.000089
16.400000,0.000066
16.433333,0.000033
16.466667,0.000005
16.500000,-0.000009
16.533333,-0.000005
16.566667,0.000016
16.600000,0.000043
16.633333,0.000064
16.666667,0.000071
16.700000,0.000058
16.733333,0.000028
16.766667,-0.000009
16.800000,-0.000042
16.833333,-0.000062
16.866667,-0.000065
16.900000,-0.000053
16.933333,-0.000035
16.966667,-0.000020
17.000000,-0.000014
17.033333,-0.000019
17.066667,-0.000029
17.100000,-0.000039
17.133333,-0.000040
17.166667,-0.000029
17.200000,-0.000004
17.233333,0.000028
17.266667,0.000060
17.300000,0.000080
17.333333,0.000082
17.366667,0.000064
17.400000,0.000032
17.433333,-0.000007
17.466667,-0.000039
17.500000,-0.000057
17.533333,-0.000056
17.566667,-0.000039
17.600000,-0.000013
17.633333,0.000011
17.666667,0.000024
17.700000,0.000022
17.733333,0.000009
17.766667,-0.000008
17.800000,-0.000020
17.833333,-0.000021
17.866667,-0.000009
17.900000,0.000010
17.933333,0.000028
17.966667,0.000035
18.000000,0.000024
18.033333,-0.000005
18.066667,-0.000044
18.100000,-0.000083
18.133333,-0.000108
18.166667,-0.000108
18.200000,-0.000082
18.233333,-0.000034
18.266667,0.000024
18.300000,0.000077
18.333333,0.000112
18.366667,0.000123
18.400000,0.000110
18.433333,0.000082
18.466667,0.000051
18.500000,0.000027
18.533333,0.000017
18.566667,0.000021
18.600000,0.000030
18.633333,0.000035
18.666667,0.000028
18.700000,0.000006
18.733333,-0.000027
18.766667,-0.000063
18.800000,-0.000091
18.833333,-0.000103
18.866667,-0.000096
18.900000,-0.000073
18.933333,-0.000041
18.966667,-0.000008
19.000000,0.000016
19.033333,0.000028
19.066667,0.000028
19.100000,0.000021
19.133333,0.000011
19.166667,0.000003
19.200000,-0.000000
19.233333,0.000000
19.266667,0.000002
19.300000,0.000001
19.333333,-0.000005
19.366667,-0.000016
19.400000,-0.000028
19.433333,-0.000033
19.466667,-0.000026
19.500000,-0.000006
19.533333,0.000024
19.566667,0.000057
19.600000,0.000082
19.633333,0.000090
19.666667,0.000077
19.700000,0.000045
19.733333,0.000005
19.766667,-0.000032
19.800000,-0.000053
19.833333,-0.000053
19.866667,-0.000032
19.900000,0.000000
19.933333,0.000031
19.966667,0.000047
20.000000,0.000040
20.033333,0.000011
20.066667,-0.000032
20.100000,-0.000077
20.133333,-0.000109
20.166667,-0.000120
20.200000,-0.000106
20.233333,-0.000072
20.266667,-0.000030
20.300000,0.000009
20.333333,0.000033
20.366667,0.000037
20.400000,0.000023
20.433333,-0.000001
20.466667,-0.000024
20.500000,-0.000037
20.533333,-0.000033
20.566667,-0.000012
20.600000,0.000022
20.633333,0.000061
20.666667,0.000096
20.700000,0.000125
20.733333,0.000146
20.766667,0.000164
20.800000,0.000182
20.833333,0.000201
20.866667,0.000218
20.900000,0.000225
20.933333,0.000211
20.966667,0.000164
21.000000,0.000081
21.033333,-0.000033
21.066667,-0.000165
21.100000,-0.000293
21.133333,-0.000392
21.166667,-0.000446
21.200000,-0.000447
21.233333,-0.000398
21.266667,-0.000315
21.300000,-0.000218
21.333333,-0.000127
21.366667,-0.000053
21.400000,-0.000000
21.433333,0.000035
21.466667,0.000060
21.500000,0.000084
21.533333,0.000113
21.566667,0.000146
21.600000,0.000179
21.633333,0.000205
21.666667,0.000216
21.700000,0.000208
21.733333,0.000185
21.766667,0.000154
21.800000,0.000122
21.833333,0.000097
21.866667,0.000081
21.900000,0.000074
21.933333,0.000072
21.966667,0.000068
22.000000,0.000056
22.033333,0.000035
22.066667,0.000007
22.100000,-0.000023
22.133333,-0.000049
22.166667,-0.000067
22.200000,-0.000076
22.233333,-0.000079
22.266667,-0.000083
22.300000,-0.000093
22.333333,-0.000114
22.366667,-0.000142
22.400000,-0.000168
22.433333,-0.000182
22.466667,-0.000175
22.500000,-0.000142
22.533333,-0.000086
22.566667,-0.000019
22.600000,0.000046
22.633333,0.000094
22.666667,0.000115
22.700000,0.000105
22.733333,0.000072
22.766667,0.000027
22.800000,-0.000013
22.833333,-0.000036
22.866667,-0.000036
22.900000,-0.000014
22.933333,0.000021
22.966667,0.000056
23.000000,0.000081
23.033333,0.000089
23.066667,0.000084
23.100000,0.000070
23.133333,0.000055
23.166667,0.000046
23.200000,0.000043
23.233333,0.000045
23.266667,0.000043
23.300000,0.000032
23.333333,0.000007
23.366667,-0.000029
23.400000,-0.000067
23.433333,-0.000097
23.466667,-0.000108
23.500000,-0.000095
23.533333,-0.000059
23.566667,-0.000010
23.600000,0.000039
23.633333,0.000075
23.666667,0.000087
23.700000,0.000073
23.733333,0.000040
23.766667,-0.000001
23.800000,-0.000037
23.833333,-0.000058
23.866667,-0.000059
23.900000,-0.000042
23.933333,-0.000019
23.966667,-0.000001
24.000000,0.000001
24.033333,-0.000016
24.066667,-0.000046
24.100000,-0.000078
24.133333,-0.000100
24.166667,-0.000102
24.200000,-0.000080
24.233333,-0.000038
24.266667,0.000014
24.300000,0.000062
24.333333,0.000094
24.366667,0.000105
24.400000,0.000096
24.433333,0.000075
24.466667,0.000053
24.500000,0.000038
24.533333,0.000036
24.566667,0.000044
24.600000,0.000055
24.633333,0.000058
24.666667,0.000047
24.700000,0.000020
24.733333,-0.000016
24.766667,-0.000051
24.800000,-0.000073
24.833333,-0.000078
24.866667,-0.000064
24.900000,-0.000038
24.933333,-0.000012
24.966667,0.000005
25.000000,0.000005
25.033333,-0.000011
25.066667,-0.000034
25.100000,-0.000054
25.133333,-0.000059
25.166667,-0.000044
25.200000,-0.000011
25.233333,0.000031
25.266667,0.000069
25.300000,0.000091
25.333333,0.000088
25.366667,0.000062
25.400000,0.000021
25.433333,-0.000021
25.466667,-0.000052
25.500000,-0.000061
25.533333,-0.000048
25.566667,-0.000018
25.600000,0.000016
25.633333,0.000040
25.666667,0.000044
25.700000,0.000025
25.733333,-0.000010
25.766667,-0.000048
25.800000,-0.000075
25.833333,-0.000082
25.866667,-0.000066
25.900000,-0.000034
25.933333,0.000005
25.966667,0.000035
26.000000,0.000049
26.033333,0.000044
26.066667,0.000026
26.100000,0.000007
26.133333,-0.000003
26.166667,0.000003
26.200000,0.000025
26.233333,0.000056
26.266667,0.000084
26.300000,0.000095
26.333333,0.000083
26.366667,0.000046
26.400000,-0.000003
26.433333,-0.000052
26.466667,-0.000086
26.500000,-0.000094
26.533333,-0.000076
26.566667,-0.000041
26.600000,-0.000002
26.633333,0.000025
26.666667,0.000031
26.700000,0.000016
26.733333,-0.000013
26.766667,-0.000044
26.800000,-0.000063
26.833333,-0.000063
26.866667,-0.000043
26.900000,-0.000011
26.933333,0.000022
26.966667,0.000042
27.000000,0.000041
27.033333,0.000020
27.066667,-0.000013
27.100000,-0.000045
27.133333,-0.000063
27.166667,-0.000059
27.200000,-0.000031
27.233333,0.000015
27.266667,0.000067
27.300000,0.000109
27.333333,0.000129
27.366667,0.000122
27.400000,0.000091
27.433333,0.000048
27.466667,0.000005
27.500000,-0.000026
27.533333,-0.000036
27.566667,-0.000029
27.600000,-0.000009
27.633333,0.000010
27.666667,0.000018
27.700000,0.000011
27.733333,-0.000011
27.766667,-0.000040
27.800000,-0.000066
27.833333,-0.000081
27.866667,-0.000080
27.900000,-0.000064
27.933333,-0.000042
27.966667,-0.000022
28.000000,-0.000012
28.033333,-0.000013
28.066667,-0.000023
28.100000,-0.000032
28.133333,-0.000034
28.166667,-0.000023
28.200000,0.000001
28.233333,0.000033
28.266667,0.000063
28.300000,0.000080
28.333333,0.000076
28.366667,0.000053
28.400000,0.000019
28.433333,-0.000015
28.466667,-0.000035
28.500000,-0.000036
28.533333,-0.000015
28.566667,0.000018
28.600000,0.000053
28.633333,0.000075
28.666667,0.000076
28.700000,0.000054
28.733333,0.000019
28.766667,-0.000018
28.800000,-0.000043
28.833333,-0.000047
28.866667,-0.000029
28.900000,0.000003
28.933333,0.000037
28.966667,0.000057
29.000000,0.000054
29.033333,0.000028
29.066667,-0.000015
29.100000,-0.000060
29.133333,-0.000094
29.166667,-0.000106
29.200000,-0.000094
29.233333,-0.000065
29.266667,-0.000029
29.300000,0.000001
29.333333,0.000016
29.366667,0.000015
29.400000,0.000003
29.433333,-0.000010
29.466667,-0.000016
29.500000,-0.000009
29.533333,0.000011
29.566667,0.000038
29.600000,0.000064
29.633333,0.000078
29.666667,0.000075
29.700000,0.000055
29.733333,0.000022
29.766667,-0.000011
29.800000,-0.000037
29.833333,-0.000047
29.866667,-0.000040
29.900000,-0.000022
29.933333,-0.000000
29.966667,0.000015
30.000000,0.000017
30.033333,0.000007
30.066667,-0.000011
30.100000,-0.000027
30.133333,-0.000033
30.166667,-0.000025
30.200000,-0.000003
30.233333,0.000025
30.266667,0.000050
30.300000,0.000062
30.333333,0.000056
30.366667,0.000032
30.400000,-0.000002
30.433333,-0.000035
30.466667,-0.000056
30.500000,-0.000059
30.533333,-0.000042
30.566667,-0.000011
30.600000,0.000022
30.633333,0.000045
30.666667,0.000051
30.700000,0.000038
30.733333,0.000011
30.766667,-0.000020
30.800000,-0.000045
30.833333,-0.000055
30.866667,-0.000048
30.900000,-0.000029
30.933333,-0.000006
30.966667,0.000011
31.000000,0.000015
31.033333,0.000007
31.066667,-0.000008
31.100000,-0.000022
31.133333,-0.000027
31.166667,-0.000020
31.200000,-0.000003
31.233333,0.000018
31.266667,0.000033
31.300000,0.000035
31.333333,0.000021
31.366667,-0.000005
31.400000,-0.000033
31.433333,-0.000051
31.466667,-0.000049
31.500000,-0.000023
31.533333,0.000021
31.566667,0.000073
31.600000,0.000118
31.633333,0.000140
31.666667,0.000132
31.700000,0.000095
31.733333,0.000039
31.766667,-0.000020
31.800000,-0.000068
31.833333,-0.000094
31.866667,-0.000095
31.900000,-0.000076
31.933333,-0.000048
31.966667,-0.000022
32.000000,-0.000008
32.033333,-0.000008
32.066667,-0.000019
32.100000,-0.000032
32.133333,-0.000036
32.166667,-0.000027
32.200000,-0.000005
32.233333,0.000023
32.266667,0.000046
32.300000,0.000052
32.333333,0.000035
32.366667,-0.000004
32.400000,-0.000054
32.433333,-0.000098
32.466667,-0.000121
32.500000,-0.000111
32.533333,-0.000069
32.566667,-0.000003
32.600000,0.000070
32.633333,0.000131
32.666667,0.000163
32.700000,0.000160
32.733333,0.000125
32.766667,0.000071
32.800000,0.000015
32.833333,-0.000028
32.866667,-0.000050
32.900000,-0.000051
32.933333,-0.000037
32.966667,-0.000021
33.000000,-0.000013
33.033333,-0.000016
33.066667,-0.000030
33.100000,-0.000045
33.133333,-0.000054
33.166667,-0.000049
33.200000,-0.000030
33.233333,-0.000002
33.266667,0.000026
33.300000,0.000045
33.333333,0.000048
33.366667,0.000034
33.400000,0.000012
33.433333,-0.000010
33.466667,-0.000022
33.500000,-0.000018
33.533333,-0.000001
33.566667,0.000024
33.600000,0.000046
33.633333,0.000054
33.666667,0.000045
33.700000,0.000020
33.733333,-0.000013
33.766667,-0.000044
33.800000,-0.000061
33.833333,-0.000060
33.866667,-0.000041
33.900000,-0.000011
33.933333,0.000018
33.966667,0.000035
34.000000,0.000034
34.033333,0.000014
34.066667,-0.000016
34.100000,-0.000046
34.133333,-0.000065
34.166667,-0.000068
34.200000,-0.000055
34.233333,-0.000031
34.266667,-0.000007
34.300000,0.000008
34.333333,0.000008
34.366667,-0.000005
34.400000,-0.000024
34.433333,-0.000036
34.466667,-0.000030
34.500000,-0.000000
34.533333,0.000050
34.566667,0.000110
34.600000,0.000161
