# Time_Sec,Amplitude
0.000000,-0.001047
0.033333,0.000628
0.066667,0.003014
0.100000,0.006489
0.133333,0.010888
0.166667,0.015440
0.200000,0.018903
0.233333,0.019905
0.266667,0.017388
0.300000,0.011071
0.333333,0.001716
0.366667,-0.008925
0.400000,-0.018554
0.433333,-0.024977
0.466667,-0.026739
0.500000,-0.023515
0.533333,-0.016189
0.566667,-0.006593
0.600000,0.003009
0.633333,0.010599
0.666667,0.014978
0.700000,0.015991
0.733333,0.014328
0.766667,0.011068
0.800000,0.007244
0.833333,0.003596
0.866667,0.000542
0.900000,-0.001714
0.933333,-0.003063
0.966667,-0.003461
1.000000,-0.002959
1.033333,-0.001757
1.066667,-0.000214
1.100000,0.001221
1.133333,0.002117
1.166667,0.002191
1.200000,0.001383
1.233333,-0.000145
1.266667,-0.002068
1.300000,-0.003990
1.333333,-0.005519
1.366667,-0.006352
1.400000,-0.006337
1.433333,-0.005512
1.466667,-0.004086
1.500000,-0.002361
1.533333,-0.000650
1.566667,0.000799
1.600000,0.001835
1.633333,0.002411
1.666667,0.002581
1.700000,0.002486
1.733333,0.002331
1.766667,0.002346
1.800000,0.002718
1.833333,0.003534
1.866667,0.004722
1.900000,0.006030
1.933333,0.007055
1.966667,0.007322
2.000000,0.006431
2.033333,0.004229
2.066667,0.000925
2.100000,-0.002901
2.133333,-0.006441
2.166667,-0.008887
2.200000,-0.009699
2.233333,-0.008768
2.266667,-0.006446
2.300000,-0.003419
2.333333,-0.000495
2.366667,0.001615
2.400000,0.002459
2.433333,0.001933
2.466667,0.000272
2.500000,-0.002018
2.533333,-0.004295
2.566667,-0.005931
2.600000,-0.006457
2.633333,-0.005658
2.666667,-0.003600
2.700000,-0.000607
2.733333,0.002816
2.766667,0.006087
2.800000,0.008678
2.833333,0.010244
2.866667,0.010700
2.900000,0.010196
2.933333,0.009012
2.966667,0.007417
3.000000,0.005588
3.033333,0.003602
3.066667,0.001502
3.100000,-0.000626
3.133333,-0.002633
3.166667,-0.004346
3.200000,-0.005639
3.233333,-0.006481
3.266667,-0.006954
3.300000,-0.007211
3.333333,-0.007411
3.366667,-0.007627
3.400000,-0.007785
3.433333,-0.007660
3.466667,-0.006945
3.500000,-0.005387
3.533333,-0.002934
3.566667,0.000168
3.600000,0.003393
3.633333,0.006088
3.666667,0.007702
3.700000,0.007978
3.733333,0.007029
3.766667,0.005271
3.800000,0.003271
3.833333,0.001567
3.866667,0.000507
3.900000,0.000162
3.933333,0.000332
3.966667,0.000653
4.000000,0.000751
4.033333,0.000388
4.066667,-0.000457
4.100000,-0.001588
4.133333,-0.002661
4.166667,-0.003298
4.200000,-0.003198
4.233333,-0.002225
4.266667,-0.000461
4.300000,0.001800
4.333333,0.004113
4.366667,0.005983
4.400000,0.006996
4.433333,0.006911
4.466667,0.005730
4.500000,0.003690
4.533333,0.001194
4.566667,-0.001312
4.600000,-0.003455
4.633333,-0.005017
4.666667,-0.005943
4.700000,-0.006294
4.733333,-0.006194
4.766667,-0.005772
4.800000,-0.005138
4.833333,-0.004371
4.866667,-0.003521
4.900000,-0.002621
4.933333,-0.001691
4.966667,-0.000759
5.000000,0.000117
5.033333,0.000852
5.066667,0.001357
5.100000,0.001588
5.133333,0.001599
5.166667,0.001544
5.200000,0.001638
5.233333,0.002060
5.266667,0.002846
5.300000,0.003833
5.333333,0.004690
5.366667,0.005040
5.400000,0.004607
5.433333,0.003331
5.466667,0.001409
5.500000,-0.000741
5.533333,-0.002591
5.566667,-0.003649
5.600000,-0.003605
5.633333,-0.002435
5.666667,-0.000424
5.700000,0.001906
5.733333,0.003926
5.766667,0.005079
5.800000,0.005040
5.833333,0.003806
5.866667,0.001686
5.900000,-0.000814
5.933333,-0.003164
5.966667,-0.004957
6.000000,-0.005984
6.033333,-0.006223
6.066667,-0.005765
6.100000,-0.004755
6.133333,-0.003342
6.166667,-0.001674
6.200000,0.000096
6.233333,0.001805
6.266667,0.003267
6.300000,0.004284
6.333333,0.004663
6.366667,0.004275
6.400000,0.003118
6.433333,0.001354
6.466667,-0.000692
6.500000,-0.002620
6.533333,-0.004069
6.566667,-0.004818
6.600000,-0.004826
6.633333,-0.004203
6.666667,-0.003131
6.700000,-0.001803
6.733333,-0.000405
6.766667,0.000863
6.800000,0.001784
6.833333,0.002169
6.866667,0.001947
6.900000,0.001214
6.933333,0.000224
6.966667,-0.000707
7.000000,-0.001288
7.033333,-0.001327
7.066667,-0.000727
7.100000,0.000517
7.133333,0.002319
7.166667,0.004478
7.200000,0.006672
7.233333,0.008508
7.266667,0.009619
7.300000,0.009758
7.333333,0.008866
7.366667,0.007073
7.400000,0.004647
7.433333,0.001915
7.466667,-0.000810
7.500000,-0.003276
7.533333,-0.005324
7.566667,-0.006875
7.600000,-0.007908
7.633333,-0.008420
7.666667,-0.008407
7.700000,-0.007878
7.733333,-0.006882
7.766667,-0.005554
7.800000,-0.004105
7.833333,-0.002779
7.866667,-0.001768
7.900000,-0.001173
7.933333,-0.001006
7.966667,-0.001226
8.000000,-0.001763
8.033333,-0.002512
8.066667,-0.003305
8.100000,-0.003917
8.133333,-0.004106
8.166667,-0.003701
8.200000,-0.002673
8.233333,-0.001161
8.266667,0.000584
8.300000,0.002298
8.333333,0.003815
8.366667,0.005119
8.400000,0.006326
8.433333,0.007619
8.466667,0.009143
8.500000,0.010924
8.533333,0.012817
8.566667,0.014487
8.600000,0.015456
8.633333,0.015200
8.666667,0.013329
8.700000,0.009765
8.733333,0.004847
8.766667,-0.000731
8.800000,-0.006108
8.833333,-0.010516
8.866667,-0.013485
8.900000,-0.014922
8.933333,-0.015045
8.966667,-0.014244
9.000000,-0.012935
9.033333,-0.011449
9.066667,-0.009969
9.100000,-0.008506
9.133333,-0.006938
9.166667,-0.005101
9.200000,-0.002902
9.233333,-0.000405
9.266667,0.002147
9.300000,0.004386
9.333333,0.005924
9.366667,0.006484
9.400000,0.006008
9.433333,0.004718
9.466667,0.003077
9.500000,0.001668
9.533333,0.001002
9.566667,0.001327
9.600000,0.002516
9.633333,0.004108
9.666667,0.005478
9.700000,0.006068
9.733333,0.005578
9.766667,0.004052
9.800000,0.001845
9.833333,-0.000502
9.866667,-0.002438
9.900000,-0.003561
9.933333,-0.003713
9.966667,-0.002987
10.000000,-0.001659
10.033333,-0.000101
10.066667,0.001315
10.100000,0.002294
10.133333,0.002668
10.166667,0.002410
10.200000,0.001602
10.233333,0.000396
10.266667,-0.001024
10.300000,-0.002450
10.333333,-0.003651
10.366667,-0.004392
10.400000,-0.004475
10.433333,-0.003805
10.466667,-0.002441
10.500000,-0.000613
10.533333,0.001309
10.566667,0.002902
10.600000,0.003805
10.633333,0.003825
10.666667,0.002987
10.700000,0.001523
10.733333,-0.000204
10.766667,-0.001803
10.800000,-0.002950
10.833333,-0.003469
10.866667,-0.003352
10.900000,-0.002739
10.933333,-0.001866
10.966667,-0.000996
11.000000,-0.000353
11.033333,-0.000050
11.066667,-0.000060
11.100000,-0.000233
11.133333,-0.000371
11.166667,-0.000297
11.200000,0.000073
11.233333,0.000712
11.266667,0.001488
11.300000,0.002211
11.333333,0.002705
11.366667,0.002868
11.400000,0.002696
11.433333,0.002260
11.466667,0.001664
11.500000,0.001010
11.533333,0.000371
11.566667,-0.000203
11.600000,-0.000675
11.633333,-0.001009
11.666667,-0.001160
11.700000,-0.001086
11.733333,-0.000763
11.766667,-0.000204
11.800000,0.000527
11.833333,0.001304
11.866667,0.001940
11.900000,0.002231
11.933333,0.002024
11.966667,0.001294
12.000000,0.000177
12.033333,-0.001079
12.066667,-0.002204
12.100000,-0.002998
12.133333,-0.003386
12.166667,-0.003402
12.200000,-0.003139
12.233333,-0.002686
12.266667,-0.002093
12.300000,-0.001380
12.333333,-0.000559
12.366667,0.000320
12.400000,0.001166
12.433333,0.001863
12.466667,0.002318
12.500000,0.002481
12.533333,0.002361
12.566667,0.002009
12.600000,0.001506
12.633333,0.000951
12.666667,0.000434
12.700000,0.000020
12.733333,-0.000263
12.766667,-0.000425
12.800000,-0.000498
12.833333,-0.000519
12.866667,-0.000521
12.900000,-0.000524
12.933333,-0.000548
12.966667,-0.000602
13.000000,-0.000678
13.033333,-0.000735
13.066667,-0.000706
13.100000,-0.000531
13.133333,-0.000191
13.166667,0.000257
13.200000,0.000690
13.233333,0.000948
13.266667,0.000899
13.300000,0.000487
13.333333,-0.000237
13.366667,-0.001128
13.400000,-0.001981
13.433333,-0.002581
13.466667,-0.002750
13.500000,-0.002386
13.533333,-0.001478
13.566667,-0.000118
13.600000,0.001513
13.633333,0.003168
13.666667,0.004583
13.700000,0.005525
13.733333,0.005842
13.766667,0.005494
13.800000,0.004553
13.833333,0.003189
13.866667,0.001622
13.900000,0.000075
13.933333,-0.001281
13.966667,-0.002353
14.000000,-0.003139
14.033333,-0.003694
14.066667,-0.004102
14.100000,-0.004436
14.133333,-0.004728
14.166667,-0.004950
14.200000,-0.005014
14.233333,-0.004793
14.266667,-0.004174
14.300000,-0.003110
14.333333,-0.001669
14.366667,-0.000038
14.400000,0.001523
14.433333,0.002765
14.466667,0.003541
14.500000,0.003849
14.533333,0.003805
14.566667,0.003574
14.600000,0.003292
14.633333,0.003022
14.666667,0.002751
14.700000,0.002419
14.733333,0.001964
14.766667,0.001364
14.800000,0.000651
14.833333,-0.000088
14.866667,-0.000741
14.900000,-0.001203
14.933333,-0.001408
14.966667,-0.001345
15.000000,-0.001069
15.033333,-0.000678
15.066667,-0.000291
15.100000,-0.000009
15.133333,0.000109
15.166667,0.000068
15.200000,-0.000082
15.233333,-0.000269
15.266667,-0.000432
15.300000,-0.000536
15.333333,-0.000580
15.366667,-0.000582
15.400000,-0.000576
15.433333,-0.000591
15.466667,-0.000644
15.500000,-0.000720
15.533333,-0.000779
15.566667,-0.000761
15.600000,-0.000610
15.633333,-0.000291
15.666667,0.000185
15.700000,0.000750
15.733333,0.001281
15.766667,0.001620
15.800000,0.001629
15.833333,0.001246
15.866667,0.000524
15.900000,-0.000374
15.933333,-0.001227
15.966667,-0.001832
16.000000,-0.002074
16.033333,-0.001951
16.066667,-0.001571
16.100000,-0.001100
16.133333,-0.000707
16.166667,-0.000512
16.200000,-0.000550
16.233333,-0.000771
16.266667,-0.001060
16.300000,-0.001272
16.333333,-0.001279
16.366667,-0.001008
16.400000,-0.000447
16.433333,0.000362
16.466667,0.001350
16.500000,0.002435
16.533333,0.003523
16.566667,0.004507
16.600000,0.005260
16.633333,0.005643
16.666667,0.005542
16.700000,0.004909
16.733333,0.003802
16.766667,0.002394
16.800000,0.000938
16.833333,-0.000310
16.866667,-0.001177
16.900000,-0.001614
16.933333,-0.001692
16.966667,-0.001560
17.000000,-0.001380
17.033333,-0.001299
17.066667,-0.001423
17.100000,-0.001813
17.133333,-0.002477
17.166667,-0.003361
17.200000,-0.004352
17.233333,-0.005303
17.266667,-0.006090
17.300000,-0.006652
17.333333,-0.006987
17.366667,-0.007101
17.400000,-0.006946
17.433333,-0.006383
17.466667,-0.005209
17.500000,-0.003254
17.533333,-0.000506
17.566667,0.002802
17.600000,0.006200
17.633333,0.009119
17.666667,0.011093
17.700000,0.011891
17.733333,0.011555
17.766667,0.010312
17.800000,0.008460
17.833333,0.006273
17.866667,0.003969
17.900000,0.001718
17.933333,-0.000320
17.966667,-0.001981
18.000000,-0.003113
18.033333,-0.003639
18.066667,-0.003602
18.100000,-0.003171
18.133333,-0.002587
18.166667,-0.002078
18.200000,-0.001784
18.233333,-0.001735
18.266667,-0.001866
18.300000,-0.002064
18.333333,-0.002214
18.366667,-0.002231
18.400000,-0.002070
18.433333,-0.001722
18.466667,-0.001214
18.500000,-0.000598
18.533333,0.000046
18.566667,0.000623
18.600000,0.001036
18.633333,0.001210
18.666667,0.001102
18.700000,0.000714
18.733333,0.000098
18.766667,-0.000648
18.800000,-0.001408
18.833333,-0.002087
18.866667,-0.002648
18.900000,-0.003110
18.933333,-0.003517
18.966667,-0.003880
19.000000,-0.004126
19.033333,-0.004097
19.066667,-0.003598
19.100000,-0.002482
19.133333,-0.000725
19.166667,0.001537
19.200000,0.004038
19.233333,0.006464
19.266667,0.008538
19.300000,0.010074
19.333333,0.010971
19.366667,0.011167
19.400000,0.010592
19.433333,0.009173
19.466667,0.006894
19.500000,0.003865
19.533333,0.000374
19.566667,-0.003143
19.600000,-0.006199
19.633333,-0.008396
19.666667,-0.009538
19.700000,-0.009667
19.733333,-0.009013
19.766667,-0.007885
19.800000,-0.006563
19.833333,-0.005228
19.866667,-0.003951
19.900000,-0.002726
19.933333,-0.001531
19.966667,-0.000377
20.000000,0.000667
20.033333,0.001498
20.066667,0.002012
20.100000,0.002149
20.133333,0.001919
20.166667,0.001414
20.200000,0.000789
20.233333,0.000234
20.266667,-0.000076
20.300000,-0.000040
20.333333,0.000341
20.366667,0.000956
20.400000,0.001638
20.433333,0.002236
20.466667,0.002679
20.500000,0.002996
20.533333,0.003265
20.566667,0.003549
20.600000,0.003826
20.633333,0.003977
20.666667,0.003819
20.700000,0.003190
20.733333,0.002046
20.766667,0.000516
20.800000,-0.001121
20.833333,-0.002521
20.866667,-0.003399
20.900000,-0.003612
20.933333,-0.003205
20.966667,-0.002378
21.000000,-0.001426
21.033333,-0.000658
21.066667,-0.000312
21.100000,-0.000490
21.133333,-0.001136
21.166667,-0.002068
21.200000,-0.003048
21.233333,-0.003847
21.266667,-0.004311
21.300000,-0.004368
21.333333,-0.004015
21.366667,-0.003287
21.400000,-0.002235
21.433333,-0.000912
21.466667,0.000610
21.500000,0.002224
21.533333,0.003777
21.566667,0.005096
21.600000,0.006033
21.633333,0.006524
21.666667,0.006605
21.700000,0.006372
21.733333,0.005906
21.766667,0.005217
21.800000,0.004241
21.833333,0.002903
21.866667,0.001200
21.900000,-0.000754
21.933333,-0.002750
21.966667,-0.004553
22.000000,-0.005966
22.033333,-0.006869
22.066667,-0.007218
22.100000,-0.007040
22.133333,-0.006410
22.166667,-0.005437
22.200000,-0.004244
22.233333,-0.002954
22.266667,-0.001669
22.300000,-0.000457
22.333333,0.000644
22.366667,0.001613
22.400000,0.002435
22.433333,0.003102
22.466667,0.003627
22.500000,0.004022
22.533333,0.004276
22.566667,0.004337
22.600000,0.004143
22.633333,0.003675
22.666667,0.003000
22.700000,0.002275
22.733333,0.001684
22.766667,0.001346
22.800000,0.001246
22.833333,0.001242
22.866667,0.001132
22.900000,0.000761
22.933333,0.000079
22.966667,-0.000855
23.000000,-0.001904
23.033333,-0.002896
23.066667,-0.003647
23.100000,-0.003998
23.133333,-0.003864
23.166667,-0.003289
23.200000,-0.002463
23.233333,-0.001675
23.266667,-0.001210
23.300000,-0.001242
23.333333,-0.001765
23.366667,-0.002593
23.400000,-0.003417
23.433333,-0.003893
23.466667,-0.003735
23.500000,-0.002792
23.533333,-0.001100
23.566667,0.001119
23.600000,0.003502
23.633333,0.005630
23.666667,0.007120
23.700000,0.007717
23.733333,0.007345
23.766667,0.006134
23.800000,0.004382
23.833333,0.002480
23.866667,0.000821
23.900000,-0.000313
23.933333,-0.000828
23.966667,-0.000839
24.000000,-0.000628
24.033333,-0.000523
24.066667,-0.000780
24.100000,-0.001483
24.133333,-0.002515
24.166667,-0.003589
24.200000,-0.004338
24.233333,-0.004434
24.266667,-0.003717
24.300000,-0.002280
24.333333,-0.000492
24.366667,0.001099
24.400000,0.001948
24.433333,0.001719
24.466667,0.000438
24.500000,-0.001497
24.533333,-0.003435
24.566667,-0.004698
24.600000,-0.004811
24.633333,-0.003650
24.666667,-0.001470
24.700000,0.001201
24.733333,0.003732
24.766667,0.005573
24.800000,0.006392
24.833333,0.006146
24.866667,0.005065
24.900000,0.003556
24.933333,0.002059
24.966667,0.000915
25.000000,0.000285
25.033333,0.000147
25.066667,0.000346
25.100000,0.000668
25.133333,0.000910
25.166667,0.000908
25.200000,0.000556
25.233333,-0.000173
25.266667,-0.001208
25.300000,-0.002383
25.333333,-0.003476
25.366667,-0.004276
25.400000,-0.004641
25.433333,-0.004521
25.466667,-0.003963
25.500000,-0.003101
25.533333,-0.002143
25.566667,-0.001335
25.600000,-0.000892
25.633333,-0.000911
25.666667,-0.001325
25.700000,-0.001903
25.733333,-0.002326
25.766667,-0.002308
25.800000,-0.001700
25.833333,-0.000533
25.866667,0.001022
25.900000,0.002745
25.933333,0.004442
25.966667,0.005966
26.000000,0.007206
26.033333,0.008071
26.066667,0.008503
26.100000,0.008490
26.133333,0.008052
26.166667,0.007225
26.200000,0.006038
26.233333,0.004510
26.266667,0.002664
26.300000,0.000550
26.333333,-0.001735
26.366667,-0.004037
26.400000,-0.006170
26.433333,-0.007971
26.466667,-0.009350
26.500000,-0.010305
26.533333,-0.010886
26.566667,-0.011122
26.600000,-0.010959
26.633333,-0.010252
26.666667,-0.008827
26.700000,-0.006586
26.733333,-0.003615
26.766667,-0.000219
26.800000,0.003134
26.833333,0.005954
26.866667,0.007883
26.900000,0.008782
26.933333,0.008741
26.966667,0.008018
27.000000,0.006943
27.033333,0.005819
27.066667,0.004839
27.100000,0.004063
27.133333,0.003438
27.166667,0.002861
27.200000,0.002247
27.233333,0.001564
27.266667,0.000839
27.300000,0.000135
27.333333,-0.000480
27.366667,-0.000957
27.400000,-0.001275
27.433333,-0.001451
27.466667,-0.001530
27.500000,-0.001573
27.533333,-0.001644
27.566667,-0.001788
27.600000,-0.002015
27.633333,-0.002301
27.666667,-0.002594
27.700000,-0.002840
27.733333,-0.003001
27.766667,-0.003058
27.800000,-0.003000
27.833333,-0.002811
27.866667,-0.002463
27.900000,-0.001928
27.933333,-0.001204
27.966667,-0.000333
28.000000,0.000592
28.033333,0.001448
28.066667,0.002122
28.100000,0.002542
28.133333,0.002683
28.166667,0.002564
28.200000,0.002235
28.233333,0.001758
28.266667,0.001206
28.300000,0.000652
28.333333,0.000170
28.366667,-0.000180
28.400000,-0.000363
28.433333,-0.000375
28.466667,-0.000246
28.500000,-0.000026
28.533333,0.000222
28.566667,0.000435
28.600000,0.000562
28.633333,0.000572
28.666667,0.000464
28.700000,0.000266
28.733333,0.000031
28.766667,-0.000177
28.800000,-0.000297
28.833333,-0.000291
28.866667,-0.000160
28.900000,0.000060
28.933333,0.000316
28.966667,0.000555
29.000000,0.000733
29.033333,0.000816
29.066667,0.000785
29.100000,0.000636
29.133333,0.000382
29.166667,0.000048
29.200000,-0.000342
29.233333,-0.000775
29.266667,-0.001247
29.300000,-0.001746
29.333333,-0.002228
29.366667,-0.002615
29.400000,-0.002803
29.433333,-0.002689
29.466667,-0.002210
29.500000,-0.001372
29.533333,-0.000268
29.566667,0.000924
29.600000,0.001972
29.633333,0.002649
29.666667,0.002801
29.700000,0.002389
29.733333,0.001503
29.766667,0.000340
29.800000,-0.000839
29.833333,-0.001767
29.866667,-0.002224
29.900000,-0.002096
29.933333,-0.001400
29.966667,-0.000290
30.000000,0.000984
30.033333,0.002147
30.066667,0.002971
30.100000,0.003334
30.133333,0.003234
30.166667,0.002767
30.200000,0.002074
30.233333,0.001293
30.266667,0.000524
30.300000,-0.000181
30.333333,-0.000796
30.366667,-0.001305
30.400000,-0.001681
30.433333,-0.001904
30.466667,-0.001969
30.500000,-0.001885
30.533333,-0.001668
30.566667,-0.001328
30.600000,-0.000876
30.633333,-0.000334
30.666667,0.000248
30.700000,0.000789
30.733333,0.001185
30.766667,0.001333
30.800000,0.001169
30.833333,0.000709
30.866667,0.000052
30.900000,-0.000648
30.933333,-0.001240
30.966667,-0.001626
31.000000,-0.001768
31.033333,-0.001680
31.066667,-0.001400
31.100000,-0.000977
31.133333,-0.000481
31.166667,-0.000012
31.200000,0.000308
31.233333,0.000363
31.266667,0.000097
31.300000,-0.000447
31.333333,-0.001109
31.366667,-0.001652
31.400000,-0.001842
31.433333,-0.001534
31.466667,-0.000739
31.500000,0.000376
31.533333,0.001549
31.566667,0.002511
31.600000,0.003088
31.633333,0.003277
31.666667,0.003248
31.700000,0.003280
31.733333,0.003619
31.766667,0.004335
31.800000,0.005244
31.833333,0.005931
31.866667,0.005875
31.900000,0.004655
31.933333,0.002157
31.966667,-0.001310
32.000000,-0.005053
32.033333,-0.008211
32.066667,-0.010060
32.100000,-0.010261
32.133333,-0.008956
32.166667,-0.006676
32.200000,-0.004131
32.233333,-0.001962
32.266667,-0.000551
32.300000,0.000052
32.333333,0.000083
32.366667,-0.000084
32.400000,-0.000077
32.433333,0.000361
32.466667,0.001320
32.500000,0.002716
32.533333,0.004322
32.566667,0.005826
32.600000,0.006892
32.633333,0.007233
32.666667,0.006670
32.700000,0.005179
32.733333,0.002908
32.766667,0.000170
32.800000,-0.002611
32.833333,-0.004992
32.866667,-0.006622
32.900000,-0.007307
32.933333,-0.007023
32.966667,-0.005883
33.000000,-0.004086
33.033333,-0.001886
33.066667,0.000431
33.100000,0.002563
33.133333,0.004232
33.166667,0.005239
33.200000,0.005518
33.233333,0.005151
33.266667,0.004335
33.300000,0.003300
33.333333,0.002230
33.366667,0.001212
33.400000,0.000240
33.433333,-0.000724
33.466667,-0.001693
33.500000,-0.002615
33.533333,-0.003391
33.566667,-0.003913
33.600000,-0.004110
33.633333,-0.003967
33.666667,-0.003522
33.700000,-0.002864
33.733333,-0.002106
33.766667,-0.001361
33.800000,-0.000705
33.833333,-0.000152
33.866667,0.000357
33.900000,0.000927
33.933333,0.001658
33.966667,0.002585
34.000000,0.003640
34.033333,0.004670
34.066667,0.005486
34.100000,0.005918
34.133333,0.005845
34.166667,0.005208
34.200000,0.003995
34.233333,0.002243
34.266667,0.000050
34.300000,-0.002398
34.333333,-0.004811
34.366667,-0.006824
34.400000,-0.008085
34.433333,-0.008373
34.466667,-0.007679
34.500000,-0.006213
34.533333,-0.004331
34.566667,-0.002432
