# Time_Sec,Amplitude
0.000000,-0.000761
0.033333,0.000856
0.066667,0.002380
0.100000,0.003848
0.133333,0.005442
0.166667,0.007360
0.200000,0.009573
0.233333,0.011640
0.266667,0.012699
0.300000,0.011706
0.333333,0.007843
0.366667,0.000942
0.400000,-0.008263
0.433333,-0.018187
0.466667,-0.026771
0.500000,-0.032045
0.533333,-0.032685
0.566667,-0.028369
0.600000,-0.019855
0.633333,-0.008775
0.666667,0.002788
0.700000,0.012815
0.733333,0.019832
0.766667,0.023177
0.800000,0.023024
0.833333,0.020180
0.866667,0.015797
0.900000,0.011063
0.933333,0.006948
0.966667,0.004021
1.000000,0.002393
1.033333,0.001801
1.066667,0.001768
1.100000,0.001786
1.133333,0.001451
1.166667,0.000537
1.200000,-0.000974
1.233333,-0.002909
1.266667,-0.004953
1.300000,-0.006736
1.333333,-0.007934
1.366667,-0.008353
1.400000,-0.007964
1.433333,-0.006897
1.466667,-0.005389
1.500000,-0.003722
1.533333,-0.002138
1.566667,-0.000785
1.600000,0.000301
1.633333,0.001163
1.666667,0.001872
1.700000,0.002475
1.733333,0.002985
1.766667,0.003388
1.800000,0.003659
1.833333,0.003765
1.866667,0.003647
1.900000,0.003224
1.933333,0.002429
1.966667,0.001267
2.000000,-0.000134
2.033333,-0.001536
2.066667,-0.002665
2.100000,-0.003312
2.133333,-0.003399
2.166667,-0.002994
2.200000,-0.002256
2.233333,-0.001370
2.266667,-0.000479
2.300000,0.000340
2.333333,0.001067
2.366667,0.001704
2.400000,0.002234
2.433333,0.002592
2.466667,0.002664
2.500000,0.002314
2.533333,0.001457
2.566667,0.000137
2.600000,-0.001425
2.633333,-0.002856
2.666667,-0.003736
2.700000,-0.003763
2.733333,-0.002877
2.766667,-0.001294
2.800000,0.000581
2.833333,0.002305
2.866667,0.003522
2.900000,0.004023
2.933333,0.003732
2.966667,0.002695
3.000000,0.001078
3.033333,-0.000830
3.066667,-0.002647
3.100000,-0.003965
3.133333,-0.004446
3.166667,-0.003924
3.200000,-0.002487
3.233333,-0.000488
3.266667,0.001541
3.300000,0.003049
3.333333,0.003644
3.366667,0.003224
3.400000,0.002017
3.433333,0.000492
3.466667,-0.000799
3.500000,-0.001420
3.533333,-0.001182
3.566667,-0.000203
3.600000,0.001150
3.633333,0.002392
3.666667,0.003090
3.700000,0.003003
3.733333,0.002135
3.766667,0.000706
3.800000,-0.000938
3.833333,-0.002447
3.866667,-0.003561
3.900000,-0.004168
3.933333,-0.004304
3.966667,-0.004103
4.000000,-0.003713
4.033333,-0.003211
4.066667,-0.002559
4.100000,-0.001643
4.133333,-0.000354
4.166667,0.001301
4.200000,0.003144
4.233333,0.004841
4.266667,0.005994
4.300000,0.006266
4.333333,0.005496
4.366667,0.003752
4.400000,0.001320
4.433333,-0.001367
4.466667,-0.003824
4.500000,-0.005616
4.533333,-0.006440
4.566667,-0.006176
4.600000,-0.004897
4.633333,-0.002825
4.666667,-0.000258
4.700000,0.002475
4.733333,0.005037
4.766667,0.007075
4.800000,0.008243
4.833333,0.008279
4.866667,0.007103
4.900000,0.004889
4.933333,0.002047
4.966667,-0.000879
5.000000,-0.003363
5.033333,-0.005038
5.066667,-0.005783
5.100000,-0.005711
5.133333,-0.005099
5.166667,-0.004269
5.200000,-0.003494
5.233333,-0.002931
5.266667,-0.002614
5.300000,-0.002488
5.333333,-0.002454
5.366667,-0.002402
5.400000,-0.002206
5.433333,-0.001730
5.466667,-0.000855
5.500000,0.000454
5.533333,0.002097
5.566667,0.003830
5.600000,0.005322
5.633333,0.006246
5.666667,0.006386
5.700000,0.005716
5.733333,0.004424
5.766667,0.002858
5.800000,0.001410
5.833333,0.000374
5.866667,-0.000146
5.900000,-0.000244
5.933333,-0.000150
5.966667,-0.000129
6.000000,-0.000383
6.033333,-0.000994
6.066667,-0.001898
6.100000,-0.002904
6.133333,-0.003755
6.166667,-0.004197
6.200000,-0.004044
6.233333,-0.003240
6.266667,-0.001884
6.300000,-0.000229
6.333333,0.001360
6.366667,0.002482
6.400000,0.002804
6.433333,0.002170
6.466667,0.000695
6.500000,-0.001239
6.533333,-0.003086
6.566667,-0.004311
6.600000,-0.004555
6.633333,-0.003739
6.666667,-0.002075
6.700000,0.000010
6.733333,0.002004
6.766667,0.003461
6.800000,0.004127
6.833333,0.004010
6.866667,0.003367
6.900000,0.002617
6.933333,0.002188
6.966667,0.002348
7.000000,0.003091
7.033333,0.004122
7.066667,0.004945
7.100000,0.005045
7.133333,0.004063
7.166667,0.001942
7.200000,-0.001038
7.233333,-0.004316
7.266667,-0.007200
7.300000,-0.009069
7.333333,-0.009550
7.366667,-0.008626
7.400000,-0.006617
7.433333,-0.004069
7.466667,-0.001586
7.500000,0.000339
7.533333,0.001436
7.566667,0.001713
7.600000,0.001416
7.633333,0.000949
7.666667,0.000737
7.700000,0.001082
7.733333,0.002028
7.766667,0.003326
7.800000,0.004540
7.833333,0.005250
7.866667,0.005243
7.900000,0.004586
7.933333,0.003553
7.966667,0.002469
8.000000,0.001559
8.033333,0.000884
8.066667,0.000369
8.100000,-0.000110
8.133333,-0.000652
8.166667,-0.001291
8.200000,-0.001987
8.233333,-0.002647
8.266667,-0.003166
8.300000,-0.003468
8.333333,-0.003547
8.366667,-0.003474
8.400000,-0.003369
8.433333,-0.003329
8.466667,-0.003350
8.500000,-0.003298
8.533333,-0.002945
8.566667,-0.002077
8.600000,-0.000625
8.633333,0.001247
8.666667,0.003151
8.700000,0.004594
8.733333,0.005178
8.766667,0.004773
8.800000,0.003576
8.833333,0.002001
8.866667,0.000506
8.900000,-0.000575
8.933333,-0.001089
8.966667,-0.001053
9.000000,-0.000597
9.033333,0.000095
9.066667,0.000821
9.100000,0.001389
9.133333,0.001643
9.166667,0.001498
9.200000,0.000976
9.233333,0.000208
9.266667,-0.000605
9.300000,-0.001273
9.333333,-0.001671
9.366667,-0.001768
9.400000,-0.001608
9.433333,-0.001279
9.466667,-0.000862
9.500000,-0.000412
9.533333,0.000048
9.566667,0.000495
9.600000,0.000880
9.633333,0.001127
9.666667,0.001151
9.700000,0.000905
9.733333,0.000417
9.766667,-0.000195
9.800000,-0.000754
9.833333,-0.001084
9.866667,-0.001081
9.900000,-0.000753
9.933333,-0.000219
9.966667,0.000329
10.000000,0.000691
10.033333,0.000715
10.066667,0.000331
10.100000,-0.000436
10.133333,-0.001469
10.166667,-0.002576
10.200000,-0.003513
10.233333,-0.004017
10.266667,-0.003871
10.300000,-0.002971
10.333333,-0.001380
10.366667,0.000661
10.400000,0.002790
10.433333,0.004616
10.466667,0.005832
10.500000,0.006289
10.533333,0.006010
10.566667,0.005148
10.600000,0.003913
10.633333,0.002504
10.666667,0.001068
10.700000,-0.000298
10.733333,-0.001528
10.766667,-0.002562
10.800000,-0.003347
10.833333,-0.003853
10.866667,-0.004094
10.900000,-0.004107
10.933333,-0.003905
10.966667,-0.003452
11.000000,-0.002685
11.033333,-0.001581
11.066667,-0.000217
11.100000,0.001209
11.133333,0.002424
11.166667,0.003173
11.200000,0.003313
11.233333,0.002862
11.266667,0.001975
11.300000,0.000882
11.333333,-0.000184
11.366667,-0.001053
11.400000,-0.001641
11.433333,-0.001948
11.466667,-0.002015
11.500000,-0.001889
11.533333,-0.001599
11.566667,-0.001158
11.600000,-0.000583
11.633333,0.000094
11.666667,0.000820
11.700000,0.001524
11.733333,0.002118
11.766667,0.002513
11.800000,0.002631
11.833333,0.002425
11.866667,0.001894
11.900000,0.001113
11.933333,0.000235
11.966667,-0.000537
12.000000,-0.001012
12.033333,-0.001093
12.066667,-0.000833
12.100000,-0.000417
12.133333,-0.000091
12.166667,-0.000043
12.200000,-0.000313
12.233333,-0.000767
12.266667,-0.001159
12.300000,-0.001253
12.333333,-0.000954
12.366667,-0.000380
12.400000,0.000178
12.433333,0.000410
12.466667,0.000157
12.500000,-0.000499
12.533333,-0.001269
12.566667,-0.001793
12.600000,-0.001788
12.633333,-0.001156
12.666667,-0.000033
12.700000,0.001260
12.733333,0.002328
12.766667,0.002833
12.800000,0.002601
12.833333,0.001656
12.866667,0.000205
12.900000,-0.001411
12.933333,-0.002798
12.966667,-0.003591
13.000000,-0.003548
13.033333,-0.002614
13.066667,-0.000927
13.100000,0.001212
13.133333,0.003413
13.166667,0.005266
13.200000,0.006406
13.233333,0.006574
13.266667,0.005675
13.300000,0.003823
13.333333,0.001353
13.366667,-0.001236
13.400000,-0.003406
13.433333,-0.004742
13.466667,-0.005070
13.500000,-0.004509
13.533333,-0.003408
13.566667,-0.002214
13.600000,-0.001318
13.633333,-0.000946
13.666667,-0.001120
13.700000,-0.001691
13.733333,-0.002408
13.766667,-0.002991
13.800000,-0.003202
13.833333,-0.002898
13.866667,-0.002060
13.900000,-0.000799
13.933333,0.000666
13.966667,0.002075
14.000000,0.003193
14.033333,0.003888
14.066667,0.004163
14.100000,0.004143
14.133333,0.003997
14.166667,0.003862
14.200000,0.003790
14.233333,0.003741
14.266667,0.003611
14.300000,0.003282
14.333333,0.002665
14.366667,0.001722
14.400000,0.000467
14.433333,-0.001039
14.466667,-0.002677
14.500000,-0.004251
14.533333,-0.005497
14.566667,-0.006140
14.600000,-0.005979
14.633333,-0.004969
14.666667,-0.003267
14.700000,-0.001212
14.733333,0.000752
14.766667,0.002197
14.800000,0.002831
14.833333,0.002602
14.866667,0.001712
14.900000,0.000524
14.933333,-0.000586
14.966667,-0.001361
15.000000,-0.001717
15.033333,-0.001707
15.066667,-0.001457
15.100000,-0.001088
15.133333,-0.000679
15.166667,-0.000254
15.200000,0.000197
15.233333,0.000685
15.266667,0.001204
15.300000,0.001719
15.333333,0.002175
15.366667,0.002495
15.400000,0.002602
15.433333,0.002436
15.466667,0.001980
15.500000,0.001270
15.533333,0.000396
15.566667,-0.000507
15.600000,-0.001277
15.633333,-0.001752
15.666667,-0.001810
15.700000,-0.001407
15.733333,-0.000604
15.766667,0.000436
15.800000,0.001480
15.833333,0.002269
15.866667,0.002575
15.900000,0.002265
15.933333,0.001344
15.966667,-0.000031
16.000000,-0.001591
16.033333,-0.003027
16.066667,-0.004069
16.100000,-0.004525
16.133333,-0.004296
16.166667,-0.003390
16.200000,-0.001942
16.233333,-0.000218
16.266667,0.001427
16.300000,0.002645
16.333333,0.003186
16.366667,0.002975
16.400000,0.002130
16.433333,0.000942
16.466667,-0.000207
16.500000,-0.000965
16.533333,-0.001135
16.566667,-0.000736
16.600000,0.000020
16.633333,0.000817
16.666667,0.001348
16.700000,0.001413
16.733333,0.000980
16.766667,0.000202
16.800000,-0.000629
16.833333,-0.001176
16.866667,-0.001180
16.900000,-0.000571
16.933333,0.000487
16.966667,0.001643
17.000000,0.002488
17.033333,0.002713
17.066667,0.002210
17.100000,0.001095
17.133333,-0.000352
17.166667,-0.001784
17.200000,-0.002891
17.233333,-0.003475
17.266667,-0.003492
17.300000,-0.003036
17.333333,-0.002298
17.366667,-0.001491
17.400000,-0.000779
17.433333,-0.000226
17.466667,0.000205
17.500000,0.000603
17.533333,0.001042
17.566667,0.001528
17.600000,0.002008
17.633333,0.002406
17.666667,0.002674
17.700000,0.002788
17.733333,0.002734
17.766667,0.002471
17.800000,0.001943
17.833333,0.001115
17.866667,0.000027
17.900000,-0.001174
17.933333,-0.002256
17.966667,-0.002974
18.000000,-0.003160
18.033333,-0.002791
18.066667,-0.002013
18.100000,-0.001090
18.133333,-0.000311
18.166667,0.000116
18.200000,0.000142
18.233333,-0.000113
18.266667,-0.000398
18.300000,-0.000431
18.333333,-0.000020
18.366667,0.000842
18.400000,0.001952
18.433333,0.002962
18.466667,0.003507
18.500000,0.003335
18.533333,0.002390
18.566667,0.000816
18.600000,-0.001092
18.633333,-0.002971
18.666667,-0.004476
18.700000,-0.005359
18.733333,-0.005491
18.766667,-0.004864
18.800000,-0.003546
18.833333,-0.001663
18.866667,0.000602
18.900000,0.002996
18.933333,0.005190
18.966667,0.006820
19.000000,0.007560
19.033333,0.007198
19.066667,0.005710
19.100000,0.003298
19.133333,0.000377
19.166667,-0.002501
19.200000,-0.004789
19.233333,-0.006105
19.266667,-0.006342
19.300000,-0.005674
19.333333,-0.004447
19.366667,-0.003023
19.400000,-0.001650
19.433333,-0.000425
19.466667,0.000669
19.500000,0.001666
19.533333,0.002538
19.566667,0.003185
19.600000,0.003491
19.633333,0.003413
19.666667,0.003016
19.700000,0.002440
19.733333,0.001824
19.766667,0.001256
19.800000,0.000769
19.833333,0.000383
19.866667,0.000131
19.900000,0.000034
19.933333,0.000061
19.966667,0.000101
20.000000,-0.000018
20.033333,-0.000483
20.066667,-0.001423
20.100000,-0.002828
20.133333,-0.004490
20.166667,-0.006023
20.200000,-0.006956
20.233333,-0.006892
20.266667,-0.005644
20.300000,-0.003317
20.333333,-0.000314
20.366667,0.002746
20.400000,0.005189
20.433333,0.006489
20.466667,0.006456
20.500000,0.005302
20.533333,0.003549
20.566667,0.001822
20.600000,0.000621
20.633333,0.000179
20.666667,0.000439
20.700000,0.001118
20.733333,0.001833
20.766667,0.002239
20.800000,0.002143
20.833333,0.001539
20.866667,0.000580
20.900000,-0.000508
20.933333,-0.001520
20.966667,-0.002322
21.000000,-0.002860
21.033333,-0.003130
21.066667,-0.003133
21.100000,-0.002864
21.133333,-0.002318
21.166667,-0.001515
21.200000,-0.000522
21.233333,0.000542
21.266667,0.001510
21.300000,0.002195
21.333333,0.002420
21.366667,0.002060
21.400000,0.001092
21.433333,-0.000357
21.466667,-0.002005
21.500000,-0.003467
21.533333,-0.004376
21.566667,-0.004508
21.600000,-0.003855
21.633333,-0.002609
21.666667,-0.001073
21.700000,0.000441
21.733333,0.001691
21.766667,0.002539
21.800000,0.002977
21.833333,0.003111
21.866667,0.003104
21.900000,0.003100
21.933333,0.003168
21.966667,0.003284
22.000000,0.003364
22.033333,0.003302
22.066667,0.003022
22.100000,0.002492
22.133333,0.001742
22.166667,0.000851
22.200000,-0.000076
22.233333,-0.000927
22.266667,-0.001610
22.300000,-0.002072
22.333333,-0.002309
22.366667,-0.002376
22.400000,-0.002376
22.433333,-0.002440
22.466667,-0.002681
22.500000,-0.003144
22.533333,-0.003777
22.566667,-0.004430
22.600000,-0.004897
22.633333,-0.004966
22.666667,-0.004475
22.700000,-0.003370
22.733333,-0.001732
22.766667,0.000209
22.800000,0.002133
22.833333,0.003719
22.866667,0.004749
22.900000,0.005175
22.933333,0.005107
22.966667,0.004738
23.000000,0.004248
23.033333,0.003731
23.066667,0.003183
23.100000,0.002556
23.133333,0.001829
23.166667,0.001044
23.200000,0.000289
23.233333,-0.000355
23.266667,-0.000858
23.300000,-0.001254
23.333333,-0.001596
23.366667,-0.001909
23.400000,-0.002143
23.433333,-0.002194
23.466667,-0.001951
23.500000,-0.001366
23.533333,-0.000499
23.566667,0.000472
23.600000,0.001288
23.633333,0.001683
23.666667,0.001470
23.700000,0.000600
23.733333,-0.000796
23.766667,-0.002421
23.800000,-0.003869
23.833333,-0.004729
23.866667,-0.004709
23.900000,-0.003739
23.933333,-0.002009
23.966667,0.000077
24.000000,0.002021
24.033333,0.003378
24.066667,0.003891
24.100000,0.003556
24.133333,0.002598
24.166667,0.001383
24.200000,0.000287
24.233333,-0.000422
24.266667,-0.000659
24.300000,-0.000514
24.333333,-0.000174
24.366667,0.000183
24.400000,0.000443
24.433333,0.000569
24.466667,0.000578
24.500000,0.000521
24.533333,0.000451
24.566667,0.000396
24.600000,0.000339
24.633333,0.000224
24.666667,-0.000015
24.700000,-0.000415
24.733333,-0.000947
24.766667,-0.001501
24.800000,-0.001918
24.833333,-0.002042
24.866667,-0.001765
24.900000,-0.001078
24.933333,-0.000078
24.966667,0.001047
25.000000,0.002064
25.033333,0.002764
25.066667,0.003023
25.100000,0.002832
25.133333,0.002294
25.166667,0.001592
25.200000,0.000923
25.233333,0.000425
25.266667,0.000119
25.300000,-0.000094
25.333333,-0.000382
25.366667,-0.000887
25.400000,-0.001651
25.433333,-0.002578
25.466667,-0.003462
25.500000,-0.004055
25.533333,-0.004151
25.566667,-0.003660
25.600000,-0.002635
25.633333,-0.001256
25.666667,0.000225
25.700000,0.001556
25.733333,0.002540
25.766667,0.003068
25.800000,0.003109
25.833333,0.002702
25.866667,0.001937
25.900000,0.000952
25.933333,-0.000083
25.966667,-0.000982
26.000000,-0.001579
26.033333,-0.001763
26.066667,-0.001512
26.100000,-0.000880
26.133333,0.000020
26.166667,0.001047
26.200000,0.002046
26.233333,0.002859
26.266667,0.003337
26.300000,0.003371
26.333333,0.002927
26.366667,0.002065
26.400000,0.000931
26.433333,-0.000298
26.466667,-0.001468
26.500000,-0.002479
26.533333,-0.003280
26.566667,-0.003832
26.600000,-0.004080
26.633333,-0.003959
26.666667,-0.003419
26.700000,-0.002478
26.733333,-0.001241
26.766667,0.000098
26.800000,0.001313
26.833333,0.002210
26.866667,0.002697
26.900000,0.002802
26.933333,0.002644
26.966667,0.002361
27.000000,0.002028
27.033333,0.001629
27.066667,0.001084
27.100000,0.000320
27.133333,-0.000641
27.166667,-0.001646
27.200000,-0.002443
27.233333,-0.002774
27.266667,-0.002478
27.300000,-0.001540
27.333333,-0.000092
27.366667,0.001616
27.400000,0.003262
27.433333,0.004513
27.466667,0.005080
27.500000,0.004777
27.533333,0.003569
27.566667,0.001598
27.600000,-0.000829
27.633333,-0.003305
27.666667,-0.005425
27.700000,-0.006872
27.733333,-0.007449
27.766667,-0.007089
27.800000,-0.005855
27.833333,-0.003939
27.866667,-0.001652
27.900000,0.000628
27.933333,0.002535
27.966667,0.003792
28.000000,0.004265
28.033333,0.003999
28.066667,0.003213
28.100000,0.002243
28.133333,0.001445
28.166667,0.001082
28.200000,0.001244
28.233333,0.001819
28.266667,0.002533
28.300000,0.003045
28.333333,0.003074
28.366667,0.002506
28.400000,0.001434
28.433333,0.000124
28.466667,-0.001088
28.500000,-0.001914
28.533333,-0.002216
28.566667,-0.002028
28.600000,-0.001536
28.633333,-0.000996
28.666667,-0.000646
28.700000,-0.000634
28.733333,-0.000982
28.766667,-0.001600
28.800000,-0.002327
28.833333,-0.002989
28.866667,-0.003441
28.900000,-0.003594
28.933333,-0.003432
28.966667,-0.002990
29.000000,-0.002325
29.033333,-0.001487
29.066667,-0.000508
29.100000,0.000591
29.133333,0.001783
29.166667,0.003016
29.200000,0.004202
29.233333,0.005229
29.266667,0.005977
29.300000,0.006340
29.333333,0.006242
29.366667,0.005648
29.400000,0.004571
29.433333,0.003066
29.466667,0.001221
29.500000,-0.000829
29.533333,-0.002891
29.566667,-0.004703
29.600000,-0.005974
29.633333,-0.006471
29.666667,-0.006120
29.700000,-0.005056
29.733333,-0.003592
29.766667,-0.002117
29.800000,-0.000955
29.833333,-0.000256
29.866667,0.000050
29.900000,0.000189
29.933333,0.000418
29.966667,0.000889
30.000000,0.001570
30.033333,0.002260
30.066667,0.002683
30.100000,0.002623
30.133333,0.002021
30.166667,0.001018
30.200000,-0.000089
30.233333,-0.000963
30.266667,-0.001344
30.300000,-0.001148
30.333333,-0.000491
30.366667,0.000354
30.400000,0.001061
30.433333,0.001369
30.466667,0.001194
30.500000,0.000657
30.533333,0.000033
30.566667,-0.000372
30.600000,-0.000352
30.633333,0.000111
30.666667,0.000839
30.700000,0.001536
30.733333,0.001910
30.766667,0.001793
30.800000,0.001204
30.833333,0.000317
30.866667,-0.000617
30.900000,-0.001379
30.933333,-0.001849
30.966667,-0.002016
31.000000,-0.001965
31.033333,-0.001816
31.066667,-0.001680
31.100000,-0.001614
31.133333,-0.001615
31.166667,-0.001622
31.200000,-0.001558
31.233333,-0.001359
31.266667,-0.001008
31.300000,-0.000537
31.333333,-0.000010
31.366667,0.000507
31.400000,0.000974
31.433333,0.001387
31.466667,0.001765
31.500000,0.002127
31.533333,0.002463
31.566667,0.002729
31.600000,0.002862
31.633333,0.002813
31.666667,0.002575
31.700000,0.002199
31.733333,0.001771
31.766667,0.001367
31.800000,0.001016
31.833333,0.000676
31.866667,0.000250
31.900000,-0.000371
31.933333,-0.001236
31.966667,-0.002280
32.000000,-0.003325
32.033333,-0.004146
32.066667,-0.004574
32.100000,-0.004556
32.133333,-0.004162
32.166667,-0.003528
32.200000,-0.002798
32.233333,-0.002063
32.266667,-0.001342
32.300000,-0.000604
32.333333,0.000196
32.366667,0.001067
32.400000,0.001964
32.433333,0.002789
32.466667,0.003413
32.500000,0.003717
32.533333,0.003635
32.566667,0.003184
32.600000,0.002476
32.633333,0.001690
32.666667,0.001025
32.700000,0.000631
32.733333,0.000571
32.766667,0.000797
32.800000,0.001166
32.833333,0.001491
32.866667,0.001595
32.900000,0.001373
32.933333,0.000806
32.966667,-0.000048
33.000000,-0.001080
33.033333,-0.002150
33.066667,-0.003090
33.100000,-0.003730
33.133333,-0.003948
33.166667,-0.003718
33.200000,-0.003125
33.233333,-0.002327
33.266667,-0.001491
33.300000,-0.000735
33.333333,-0.000112
33.366667,0.000381
33.400000,0.000766
33.433333,0.001064
33.466667,0.001286
33.500000,0.001431
33.533333,0.001495
33.566667,0.001468
33.600000,0.001341
33.633333,0.001118
33.666667,0.000820
33.700000,0.000493
33.733333,0.000208
33.766667,0.000048
33.800000,0.000097
33.833333,0.000386
33.866667,0.000858
33.900000,0.001350
33.933333,0.001651
33.966667,0.001573
34.000000,0.001029
34.033333,0.000067
34.066667,-0.001139
34.100000,-0.002331
34.133333,-0.003236
34.166667,-0.003640
34.200000,-0.003445
34.233333,-0.002681
34.266667,-0.001498
34.300000,-0.000118
34.333333,0.001225
34.366667,0.002337
34.400000,0.003091
34.433333,0.003434
34.466667,0.003364
34.500000,0.002928
34.533333,0.002218
34.566667,0.001372
34.600000,0.000543
34.633333,-0.000155
