# Time_Sec,Amplitude
0.000000,-0.000330
0.033333,-0.002131
0.066667,-0.004022
0.100000,-0.005992
0.133333,-0.007876
0.166667,-0.009398
0.200000,-0.010268
0.233333,-0.010284
0.266667,-0.009412
0.300000,-0.007801
0.333333,-0.005767
0.366667,-0.003721
0.400000,-0.002062
0.433333,-0.001047
0.466667,-0.000697
0.500000,-0.000777
0.533333,-0.000898
0.566667,-0.000667
0.600000,0.000156
0.633333,0.001560
0.666667,0.003286
0.700000,0.004917
0.733333,0.006033
0.766667,0.006368
0.800000,0.005896
0.833333,0.004846
0.866667,0.003619
0.900000,0.002653
0.933333,0.002278
0.966667,0.002595
1.000000,0.003438
1.033333,0.004415
1.066667,0.005020
1.100000,0.004785
1.133333,0.003436
1.166667,0.001001
1.200000,-0.002159
1.233333,-0.005423
1.266667,-0.008081
1.300000,-0.009532
1.333333,-0.009465
1.366667,-0.007934
1.400000,-0.005329
1.433333,-0.002266
1.466667,0.000585
1.500000,0.002658
1.533333,0.003618
1.566667,0.003411
1.600000,0.002249
1.633333,0.000529
1.666667,-0.001266
1.700000,-0.002667
1.733333,-0.003310
1.766667,-0.003008
1.800000,-0.001792
1.833333,0.000085
1.866667,0.002219
1.900000,0.004156
1.933333,0.005513
1.966667,0.006059
2.000000,0.005744
2.033333,0.004683
2.066667,0.003112
2.100000,0.001356
2.133333,-0.000208
2.166667,-0.001222
2.200000,-0.001456
2.233333,-0.000924
2.266667,0.000044
2.300000,0.000894
2.333333,0.001058
2.366667,0.000211
2.400000,-0.001579
2.433333,-0.003878
2.466667,-0.006062
2.500000,-0.007545
2.533333,-0.007955
2.566667,-0.007214
2.600000,-0.005527
2.633333,-0.003287
2.666667,-0.000963
2.700000,0.001025
2.733333,0.002403
2.766667,0.003105
2.800000,0.003269
2.833333,0.003164
2.866667,0.003088
2.900000,0.003262
2.933333,0.003778
2.966667,0.004568
3.000000,0.005422
3.033333,0.006044
3.066667,0.006130
3.100000,0.005475
3.133333,0.004048
3.166667,0.002031
3.200000,-0.000234
3.233333,-0.002352
3.266667,-0.004012
3.300000,-0.005066
3.333333,-0.005536
3.366667,-0.005552
3.400000,-0.005266
3.433333,-0.004790
3.466667,-0.004175
3.500000,-0.003425
3.533333,-0.002533
3.566667,-0.001522
3.600000,-0.000458
3.633333,0.000555
3.666667,0.001415
3.700000,0.002055
3.733333,0.002453
3.766667,0.002635
3.800000,0.002657
3.833333,0.002583
3.866667,0.002469
3.900000,0.002353
3.933333,0.002249
3.966667,0.002153
4.000000,0.002046
4.033333,0.001901
4.066667,0.001697
4.100000,0.001417
4.133333,0.001053
4.166667,0.000609
4.200000,0.000096
4.233333,-0.000464
4.266667,-0.001045
4.300000,-0.001618
4.333333,-0.002160
4.366667,-0.002666
4.400000,-0.003152
4.433333,-0.003661
4.466667,-0.004245
4.500000,-0.004942
4.533333,-0.005735
4.566667,-0.006515
4.600000,-0.007077
4.633333,-0.007146
4.666667,-0.006449
4.700000,-0.004816
4.733333,-0.002274
4.766667,0.000912
4.800000,0.004285
4.833333,0.007335
4.866667,0.009672
4.900000,0.011152
4.933333,0.011874
4.966667,0.012080
5.000000,0.011986
5.033333,0.011629
5.066667,0.010811
5.100000,0.009180
5.133333,0.006449
5.166667,0.002630
5.200000,-0.001851
5.233333,-0.006238
5.266667,-0.009703
5.300000,-0.011630
5.333333,-0.011807
5.366667,-0.010456
5.400000,-0.008130
5.433333,-0.005514
5.466667,-0.003228
5.500000,-0.001672
5.533333,-0.000959
5.566667,-0.000941
5.600000,-0.001321
5.633333,-0.001794
5.666667,-0.002156
5.700000,-0.002327
5.733333,-0.002313
5.766667,-0.002150
5.800000,-0.001875
5.833333,-0.001521
5.866667,-0.001115
5.900000,-0.000672
5.933333,-0.000205
5.966667,0.000280
6.000000,0.000778
6.033333,0.001306
6.066667,0.001917
6.100000,0.002689
6.133333,0.003694
6.166667,0.004947
6.200000,0.006342
6.233333,0.007633
6.266667,0.008465
6.300000,0.008476
6.333333,0.007437
6.366667,0.005376
6.400000,0.002628
6.433333,-0.000247
6.466667,-0.002644
6.500000,-0.004130
6.533333,-0.004572
6.566667,-0.004134
6.600000,-0.003151
6.633333,-0.001981
6.666667,-0.000907
6.700000,-0.000107
6.733333,0.000327
6.766667,0.000353
6.800000,-0.000034
6.833333,-0.000807
6.866667,-0.001894
6.900000,-0.003179
6.933333,-0.004515
6.966667,-0.005733
7.000000,-0.006662
7.033333,-0.007129
7.066667,-0.006973
7.100000,-0.006081
7.133333,-0.004456
7.166667,-0.002272
7.200000,0.000142
7.233333,0.002401
7.266667,0.004197
7.300000,0.005395
7.333333,0.006020
7.366667,0.006179
7.400000,0.005976
7.433333,0.005474
7.466667,0.004709
7.500000,0.003738
7.533333,0.002662
7.566667,0.001633
7.600000,0.000815
7.633333,0.000325
7.666667,0.000191
7.700000,0.000339
7.733333,0.000620
7.766667,0.000860
7.800000,0.000895
7.833333,0.000608
7.866667,-0.000045
7.900000,-0.001011
7.933333,-0.002145
7.966667,-0.003228
8.000000,-0.004018
8.033333,-0.004308
8.066667,-0.003996
8.100000,-0.003122
8.133333,-0.001855
8.166667,-0.000448
8.200000,0.000835
8.233333,0.001789
8.266667,0.002302
8.300000,0.002354
8.333333,0.001998
8.366667,0.001337
8.400000,0.000517
8.433333,-0.000295
8.466667,-0.000942
8.500000,-0.001317
8.533333,-0.001404
8.566667,-0.001275
8.600000,-0.001040
8.633333,-0.000773
8.666667,-0.000473
8.700000,-0.000081
8.733333,0.000449
8.766667,0.001077
8.800000,0.001655
8.833333,0.001976
8.866667,0.001872
8.900000,0.001304
8.933333,0.000396
8.966667,-0.000610
9.000000,-0.001463
9.033333,-0.002010
9.066667,-0.002250
9.100000,-0.002314
9.133333,-0.002385
9.166667,-0.002600
9.200000,-0.002967
9.233333,-0.003345
9.266667,-0.003481
9.300000,-0.003109
9.333333,-0.002062
9.366667,-0.000364
9.400000,0.001746
9.433333,0.003850
9.466667,0.005480
9.500000,0.006267
9.533333,0.006085
9.566667,0.005092
9.600000,0.003676
9.633333,0.002291
9.666667,0.001292
9.700000,0.000831
9.733333,0.000867
9.766667,0.001232
9.800000,0.001721
9.833333,0.002154
9.866667,0.002429
9.900000,0.002558
9.933333,0.002666
9.966667,0.002909
10.000000,0.003353
10.033333,0.003862
10.066667,0.004080
10.100000,0.003523
10.133333,0.001763
10.166667,-0.001381
10.200000,-0.005704
10.233333,-0.010611
10.266667,-0.015253
10.300000,-0.018759
10.333333,-0.020479
10.366667,-0.020119
10.400000,-0.017759
10.433333,-0.013750
10.466667,-0.008574
10.500000,-0.002742
10.533333,0.003252
10.566667,0.008937
10.600000,0.013864
10.633333,0.017625
10.666667,0.019893
10.700000,0.020474
10.733333,0.019342
10.766667,0.016668
10.800000,0.012805
10.833333,0.008247
10.866667,0.003547
10.900000,-0.000771
10.933333,-0.004289
10.966667,-0.006739
11.000000,-0.008020
11.033333,-0.008188
11.066667,-0.007438
11.100000,-0.006087
11.133333,-0.004519
11.166667,-0.003124
11.200000,-0.002210
11.233333,-0.001921
11.266667,-0.002197
11.300000,-0.002801
11.333333,-0.003401
11.366667,-0.003696
11.400000,-0.003515
11.433333,-0.002862
11.466667,-0.001894
11.500000,-0.000854
11.533333,0.000031
11.566667,0.000623
11.600000,0.000925
11.633333,0.001067
11.666667,0.001261
11.700000,0.001721
11.733333,0.002577
11.766667,0.003806
11.800000,0.005207
11.833333,0.006429
11.866667,0.007071
11.900000,0.006807
11.933333,0.005521
11.966667,0.003374
12.000000,0.000769
12.033333,-0.001776
12.066667,-0.003812
12.100000,-0.005082
12.133333,-0.005560
12.166667,-0.005407
12.200000,-0.004868
12.233333,-0.004162
12.266667,-0.003406
12.300000,-0.002597
12.333333,-0.001677
12.366667,-0.000628
12.400000,0.000460
12.433333,0.001391
12.466667,0.001946
12.500000,0.001981
12.533333,0.001496
12.566667,0.000637
12.600000,-0.000345
12.633333,-0.001164
12.666667,-0.001562
12.700000,-0.001375
12.733333,-0.000571
12.766667,0.000726
12.800000,0.002250
12.833333,0.003636
12.866667,0.004506
12.900000,0.004574
12.933333,0.003720
12.966667,0.002038
13.000000,-0.000177
13.033333,-0.002489
13.066667,-0.004432
13.100000,-0.005621
13.133333,-0.005849
13.166667,-0.005129
13.200000,-0.003676
13.233333,-0.001833
13.266667,0.000042
13.300000,0.001674
13.333333,0.002919
13.366667,0.003750
13.400000,0.004209
13.433333,0.004354
13.466667,0.004226
13.500000,0.003845
13.533333,0.003228
13.566667,0.002413
13.600000,0.001475
13.633333,0.000529
13.666667,-0.000292
13.700000,-0.000873
13.733333,-0.001168
13.766667,-0.001223
13.800000,-0.001177
13.833333,-0.001214
13.866667,-0.001498
13.900000,-0.002107
13.933333,-0.002983
13.966667,-0.003937
14.000000,-0.004693
14.033333,-0.004972
14.066667,-0.004591
14.100000,-0.003530
14.133333,-0.001951
14.166667,-0.000149
14.200000,0.001539
14.233333,0.002840
14.266667,0.003611
14.300000,0.003865
14.333333,0.003733
14.366667,0.003391
14.400000,0.002981
14.433333,0.002545
14.466667,0.002020
14.500000,0.001291
14.533333,0.000278
14.566667,-0.000979
14.600000,-0.002287
14.633333,-0.003336
14.666667,-0.003802
14.700000,-0.003455
14.733333,-0.002254
14.766667,-0.000389
14.800000,0.001752
14.833333,0.003674
14.866667,0.004929
14.900000,0.005238
14.933333,0.004570
14.966667,0.003131
15.000000,0.001293
15.033333,-0.000524
15.066667,-0.001964
15.100000,-0.002811
15.133333,-0.003014
15.166667,-0.002668
15.200000,-0.001973
15.233333,-0.001178
15.266667,-0.000535
15.300000,-0.000255
15.333333,-0.000466
15.366667,-0.001179
15.400000,-0.002278
15.433333,-0.003540
15.466667,-0.004671
15.500000,-0.005379
15.533333,-0.005426
15.566667,-0.004685
15.600000,-0.003167
15.633333,-0.001016
15.666667,0.001514
15.700000,0.004095
15.733333,0.006380
15.766667,0.008053
15.800000,0.008891
15.833333,0.008813
15.866667,0.007888
15.900000,0.006326
15.933333,0.004431
15.966667,0.002547
16.000000,0.000976
16.033333,-0.000104
16.066667,-0.000710
16.100000,-0.001048
16.133333,-0.001425
16.166667,-0.002105
16.200000,-0.003179
16.233333,-0.004521
16.266667,-0.005822
16.300000,-0.006711
16.333333,-0.006898
16.366667,-0.006284
16.400000,-0.005001
16.433333,-0.003363
16.466667,-0.001747
16.500000,-0.000475
16.533333,0.000271
16.566667,0.000466
16.600000,0.000221
16.633333,-0.000260
16.666667,-0.000729
16.700000,-0.000951
16.733333,-0.000772
16.766667,-0.000165
16.800000,0.000777
16.833333,0.001890
16.866667,0.003011
16.900000,0.004035
16.933333,0.004925
16.966667,0.005690
17.000000,0.006337
17.033333,0.006826
17.066667,0.007061
17.100000,0.006911
17.133333,0.006265
17.166667,0.005064
17.200000,0.003323
17.233333,0.001126
17.266667,-0.001394
17.300000,-0.004061
17.333333,-0.006658
17.366667,-0.008921
17.400000,-0.010553
17.433333,-0.011271
17.466667,-0.010878
17.500000,-0.009327
17.533333,-0.006766
17.566667,-0.003538
17.600000,-0.000135
17.633333,0.002897
17.666667,0.005073
17.700000,0.006083
17.733333,0.005848
17.766667,0.004540
17.800000,0.002553
17.833333,0.000436
17.866667,-0.001226
17.900000,-0.001965
17.933333,-0.001571
17.966667,-0.000157
18.000000,0.001888
18.033333,0.004032
18.066667,0.005764
18.100000,0.006724
18.133333,0.006754
18.166667,0.005888
18.200000,0.004298
18.233333,0.002226
18.266667,-0.000065
18.300000,-0.002327
18.333333,-0.004340
18.366667,-0.005914
18.400000,-0.006877
18.433333,-0.007098
18.466667,-0.006531
18.500000,-0.005271
18.533333,-0.003566
18.566667,-0.001781
18.600000,-0.000285
18.633333,0.000671
18.666667,0.001044
18.700000,0.000991
18.733333,0.000767
18.766667,0.000594
18.800000,0.000553
18.833333,0.000587
18.866667,0.000575
18.900000,0.000457
18.933333,0.000301
18.966667,0.000306
19.000000,0.000711
19.033333,0.001672
19.066667,0.003151
19.100000,0.004881
19.133333,0.006431
19.166667,0.007349
19.200000,0.007303
19.233333,0.006163
19.266667,0.004016
19.300000,0.001135
19.333333,-0.002079
19.366667,-0.005165
19.400000,-0.007687
19.433333,-0.009288
19.466667,-0.009740
19.500000,-0.008971
19.533333,-0.007096
19.566667,-0.004422
19.600000,-0.001409
19.633333,0.001424
19.666667,0.003627
19.700000,0.004924
19.733333,0.005259
19.766667,0.004770
19.800000,0.003719
19.833333,0.002397
19.866667,0.001047
19.900000,-0.000174
19.933333,-0.001191
19.966667,-0.001960
20.000000,-0.002428
20.033333,-0.002530
20.066667,-0.002226
20.100000,-0.001554
20.133333,-0.000646
20.166667,0.000298
20.200000,0.001074
20.233333,0.001539
20.266667,0.001654
20.300000,0.001481
20.333333,0.001129
20.366667,0.000699
20.400000,0.000257
20.433333,-0.000151
20.466667,-0.000460
20.500000,-0.000569
20.533333,-0.000359
20.566667,0.000256
20.600000,0.001255
20.633333,0.002471
20.666667,0.003602
20.700000,0.004293
20.733333,0.004255
20.766667,0.003378
20.800000,0.001791
20.833333,-0.000177
20.866667,-0.002109
20.900000,-0.003651
20.933333,-0.004608
20.966667,-0.004974
21.000000,-0.004885
21.033333,-0.004534
21.066667,-0.004078
21.100000,-0.003587
21.133333,-0.003045
21.166667,-0.002393
21.200000,-0.001584
21.233333,-0.000618
21.266667,0.000461
21.300000,0.001579
21.333333,0.002648
21.366667,0.003569
21.400000,0.004239
21.433333,0.004572
21.466667,0.004513
21.500000,0.004062
21.533333,0.003274
21.566667,0.002261
21.600000,0.001174
21.633333,0.000169
21.666667,-0.000640
21.700000,-0.001207
21.733333,-0.001545
21.766667,-0.001701
21.800000,-0.001713
21.833333,-0.001594
21.866667,-0.001323
21.900000,-0.000880
21.933333,-0.000273
21.966667,0.000416
22.000000,0.001043
22.033333,0.001441
22.066667,0.001490
22.100000,0.001173
22.133333,0.000562
22.166667,-0.000219
22.200000,-0.001045
22.233333,-0.001821
22.266667,-0.002489
22.300000,-0.003025
22.333333,-0.003433
22.366667,-0.003725
22.400000,-0.003885
22.433333,-0.003847
22.466667,-0.003493
22.500000,-0.002704
22.533333,-0.001423
22.566667,0.000276
22.600000,0.002183
22.633333,0.003994
22.666667,0.005392
22.700000,0.006135
22.733333,0.006120
22.766667,0.005414
22.800000,0.004232
22.833333,0.002870
22.866667,0.001617
22.900000,0.000682
22.933333,0.000151
22.966667,-0.000018
23.000000,0.000042
23.033333,0.000158
23.066667,0.000185
23.100000,0.000035
23.133333,-0.000308
23.166667,-0.000796
23.200000,-0.001347
23.233333,-0.001878
23.266667,-0.002331
23.300000,-0.002692
23.333333,-0.002976
23.366667,-0.003209
23.400000,-0.003408
23.433333,-0.003580
23.466667,-0.003726
23.500000,-0.003843
23.533333,-0.003907
23.566667,-0.003856
23.600000,-0.003581
23.633333,-0.002944
23.666667,-0.001826
23.700000,-0.000188
23.733333,0.001884
23.766667,0.004164
23.800000,0.006320
23.833333,0.007988
23.866667,0.008860
23.900000,0.008766
23.933333,0.007727
23.966667,0.005953
24.000000,0.003791
24.033333,0.001617
24.066667,-0.000259
24.100000,-0.001657
24.133333,-0.002527
24.166667,-0.002927
24.200000,-0.002978
24.233333,-0.002828
24.266667,-0.002608
24.300000,-0.002409
24.333333,-0.002266
24.366667,-0.002163
24.400000,-0.002053
24.433333,-0.001898
24.466667,-0.001714
24.500000,-0.001584
24.533333,-0.001615
24.566667,-0.001870
24.600000,-0.002294
24.633333,-0.002712
24.666667,-0.002884
24.700000,-0.002605
24.733333,-0.001809
24.766667,-0.000610
24.800000,0.000729
24.833333,0.001906
24.866667,0.002711
24.900000,0.003107
24.933333,0.003226
24.966667,0.003292
25.000000,0.003513
25.033333,0.003978
25.066667,0.004613
25.100000,0.005196
25.133333,0.005444
25.166667,0.005111
25.200000,0.004072
25.233333,0.002342
25.266667,0.000057
25.300000,-0.002555
25.333333,-0.005205
25.366667,-0.007563
25.400000,-0.009306
25.433333,-0.010159
25.466667,-0.009944
25.500000,-0.008626
25.533333,-0.006335
25.566667,-0.003381
25.600000,-0.000208
25.633333,0.002710
25.666667,0.004994
25.700000,0.006456
25.733333,0.007098
25.766667,0.007049
25.800000,0.006479
25.833333,0.005527
25.866667,0.004285
25.900000,0.002836
25.933333,0.001298
25.966667,-0.000139
26.000000,-0.001252
26.033333,-0.001860
26.066667,-0.001906
26.100000,-0.001486
26.133333,-0.000809
26.166667,-0.000108
26.200000,0.000445
26.233333,0.000775
26.266667,0.000879
26.300000,0.000785
26.333333,0.000508
26.366667,0.000051
26.400000,-0.000574
26.433333,-0.001330
26.466667,-0.002144
26.500000,-0.002926
26.533333,-0.003581
26.566667,-0.004019
26.600000,-0.004173
26.633333,-0.004009
26.666667,-0.003540
26.700000,-0.002832
26.733333,-0.001996
26.766667,-0.001156
26.800000,-0.000398
26.833333,0.000283
26.866667,0.000989
26.900000,0.001865
26.933333,0.003001
26.966667,0.004340
27.000000,0.005660
27.033333,0.006621
27.066667,0.006870
27.100000,0.006166
27.133333,0.004487
27.166667,0.002094
27.200000,-0.000522
27.233333,-0.002773
27.266667,-0.004171
27.300000,-0.004475
27.333333,-0.003750
27.366667,-0.002330
27.400000,-0.000706
27.433333,0.000620
27.466667,0.001276
27.500000,0.001120
27.533333,0.000273
27.566667,-0.000931
27.600000,-0.002062
27.633333,-0.002751
27.666667,-0.002827
27.700000,-0.002358
27.733333,-0.001593
27.766667,-0.000822
27.800000,-0.000238
27.833333,0.000142
27.866667,0.000450
27.900000,0.000868
27.933333,0.001487
27.966667,0.002235
28.000000,0.002881
28.033333,0.003148
28.066667,0.002847
28.100000,0.001986
28.133333,0.000788
28.166667,-0.000388
28.200000,-0.001179
28.233333,-0.001375
28.266667,-0.001010
28.300000,-0.000346
28.333333,0.000243
28.366667,0.000443
28.400000,0.000122
28.433333,-0.000645
28.466667,-0.001634
28.500000,-0.002582
28.533333,-0.003275
28.566667,-0.003602
28.600000,-0.003551
28.633333,-0.003181
28.666667,-0.002573
28.700000,-0.001784
28.733333,-0.000826
28.766667,0.000311
28.800000,0.001620
28.833333,0.003034
28.866667,0.004406
28.900000,0.005537
28.933333,0.006220
28.966667,0.006309
29.000000,0.005759
29.033333,0.004639
29.066667,0.003110
29.100000,0.001375
29.133333,-0.000363
29.166667,-0.001945
29.200000,-0.003275
29.233333,-0.004328
29.266667,-0.005116
29.300000,-0.005651
29.333333,-0.005900
29.366667,-0.005766
29.400000,-0.005121
29.433333,-0.003869
29.466667,-0.002033
29.500000,0.000190
29.533333,0.002438
29.566667,0.004283
29.600000,0.005366
29.633333,0.005518
29.666667,0.004805
29.700000,0.003486
29.733333,0.001915
29.766667,0.000430
29.800000,-0.000737
29.833333,-0.001485
29.866667,-0.001825
29.900000,-0.001837
29.933333,-0.001612
29.966667,-0.001224
30.000000,-0.000730
30.033333,-0.000187
30.066667,0.000338
30.100000,0.000763
30.133333,0.000999
30.166667,0.000982
30.200000,0.000702
30.233333,0.000227
30.266667,-0.000310
30.300000,-0.000760
30.333333,-0.001021
30.366667,-0.001074
30.400000,-0.000991
30.433333,-0.000886
30.466667,-0.000860
30.500000,-0.000943
30.533333,-0.001081
30.566667,-0.001168
30.600000,-0.001099
30.633333,-0.000825
30.666667,-0.000380
30.700000,0.000130
30.733333,0.000581
30.766667,0.000889
30.800000,0.001056
30.833333,0.001165
30.866667,0.001342
30.900000,0.001699
30.933333,0.002282
30.966667,0.003032
31.000000,0.003778
31.033333,0.004275
31.066667,0.004283
31.100000,0.003663
31.133333,0.002443
31.166667,0.000816
31.200000,-0.000920
31.233333,-0.002486
31.266667,-0.003732
31.300000,-0.004673
31.333333,-0.005439
31.366667,-0.006156
31.400000,-0.006822
31.433333,-0.007250
31.466667,-0.007104
31.500000,-0.006048
31.533333,-0.003928
31.566667,-0.000921
31.600000,0.002458
31.633333,0.005505
31.666667,0.007577
31.700000,0.008310
31.733333,0.007713
31.766667,0.006126
31.800000,0.004079
31.833333,0.002102
31.866667,0.000575
31.900000,-0.000359
31.933333,-0.000774
31.966667,-0.000877
32.000000,-0.000885
32.033333,-0.000933
32.066667,-0.001040
32.100000,-0.001131
32.133333,-0.001104
32.166667,-0.000896
32.200000,-0.000527
32.233333,-0.000102
32.266667,0.000225
32.300000,0.000321
32.333333,0.000128
32.366667,-0.000303
32.400000,-0.000825
32.433333,-0.001240
32.466667,-0.001365
32.500000,-0.001110
32.533333,-0.000510
32.566667,0.000276
32.600000,0.001018
32.633333,0.001478
32.666667,0.001470
32.700000,0.000907
32.733333,-0.000173
32.766667,-0.001611
32.800000,-0.003153
32.833333,-0.004521
32.866667,-0.005480
32.900000,-0.005881
32.933333,-0.005664
32.966667,-0.004829
33.000000,-0.003413
33.033333,-0.001489
33.066667,0.000829
33.100000,0.003373
33.133333,0.005952
33.166667,0.008378
33.200000,0.010458
33.233333,0.011937
33.266667,0.012466
33.300000,0.011659
33.333333,0.009263
33.366667,0.005338
33.400000,0.000353
33.433333,-0.004872
33.466667,-0.009356
33.500000,-0.012212
33.533333,-0.012889
33.566667,-0.011337
33.600000,-0.008047
33.633333,-0.003908
33.666667,0.000078
33.700000,0.003093
33.733333,0.004703
33.766667,0.004905
33.800000,0.004041
33.833333,0.002634
33.866667,0.001195
33.900000,0.000077
33.933333,-0.000600
33.966667,-0.000934
34.000000,-0.001154
34.033333,-0.001497
34.066667,-0.002100
34.100000,-0.002918
34.133333,-0.003735
34.166667,-0.004235
34.200000,-0.004139
34.233333,-0.003330
34.266667,-0.001924
34.300000,-0.000242
34.333333,0.001316
34.366667,0.002445
34.400000,0.003054
34.433333,0.003274
34.466667,0.003355
34.500000,0.003504
34.533333,0.003771
34.566667,0.004049
34.600000,0.004155
