# Time_Sec,Amplitude
0.000000,0.000710
0.033333,0.000093
0.066667,-0.000518
0.100000,-0.001084
0.133333,-0.001527
0.166667,-0.001751
0.200000,-0.001673
0.233333,-0.001258
0.266667,-0.000537
0.300000,0.000391
0.333333,0.001377
0.366667,0.002255
0.400000,0.002867
0.433333,0.003088
0.466667,0.002843
0.500000,0.002130
0.533333,0.001027
0.566667,-0.000317
0.600000,-0.001718
0.633333,-0.003010
0.666667,-0.004090
0.700000,-0.004955
0.733333,-0.005682
0.766667,-0.006373
0.800000,-0.007049
0.833333,-0.007555
0.866667,-0.007520
0.900000,-0.006454
0.933333,-0.003977
0.966667,-0.000088
1.000000,0.004653
1.033333,0.009185
1.066667,0.012270
1.100000,0.012968
1.133333,0.011030
1.166667,0.007018
1.200000,0.002107
1.233333,-0.002329
1.266667,-0.005145
1.300000,-0.005692
1.333333,-0.003912
1.366667,-0.000313
1.400000,0.004145
1.433333,0.008227
1.466667,0.010716
1.500000,0.010730
1.533333,0.007996
1.566667,0.002984
1.600000,-0.003171
1.633333,-0.008986
1.666667,-0.013092
1.700000,-0.014655
1.733333,-0.013583
1.766667,-0.010469
1.800000,-0.006322
1.833333,-0.002210
1.866667,0.001062
1.900000,0.003117
1.933333,0.003997
1.966667,0.004005
2.000000,0.003519
2.033333,0.002832
2.066667,0.002112
2.100000,0.001414
2.133333,0.000747
2.166667,0.000124
2.200000,-0.000407
2.233333,-0.000758
2.266667,-0.000832
2.300000,-0.000551
2.333333,0.000115
2.366667,0.001120
2.400000,0.002328
2.433333,0.003518
2.466667,0.004424
2.500000,0.004811
2.533333,0.004559
2.566667,0.003708
2.600000,0.002452
2.633333,0.001077
2.666667,-0.000130
2.700000,-0.000963
2.733333,-0.001362
2.766667,-0.001419
2.800000,-0.001341
2.833333,-0.001375
2.866667,-0.001732
2.900000,-0.002513
2.933333,-0.003653
2.966667,-0.004903
3.000000,-0.005878
3.033333,-0.006185
3.066667,-0.005577
3.100000,-0.004074
3.133333,-0.001978
3.166667,0.000214
3.200000,0.001983
3.233333,0.002964
3.266667,0.003076
3.300000,0.002525
3.333333,0.001702
3.366667,0.001026
3.400000,0.000794
3.433333,0.001105
3.466667,0.001867
3.500000,0.002842
3.533333,0.003727
3.566667,0.004223
3.600000,0.004102
3.633333,0.003277
3.666667,0.001847
3.700000,0.000094
3.733333,-0.001592
3.766667,-0.002845
3.800000,-0.003444
3.833333,-0.003378
3.866667,-0.002825
3.900000,-0.002052
3.933333,-0.001300
3.966667,-0.000693
4.000000,-0.000228
4.033333,0.000184
4.066667,0.000634
4.100000,0.001148
4.133333,0.001659
4.166667,0.002033
4.200000,0.002134
4.233333,0.001888
4.266667,0.001307
4.300000,0.000485
4.333333,-0.000429
4.366667,-0.001275
4.400000,-0.001931
4.433333,-0.002349
4.466667,-0.002544
4.500000,-0.002554
4.533333,-0.002383
4.566667,-0.001997
4.600000,-0.001353
4.633333,-0.000460
4.666667,0.000576
4.700000,0.001564
4.733333,0.002281
4.766667,0.002553
4.800000,0.002329
4.833333,0.001705
4.866667,0.000898
4.900000,0.000171
4.933333,-0.000257
4.966667,-0.000286
5.000000,0.000039
5.033333,0.000540
5.066667,0.000981
5.100000,0.001139
5.133333,0.000885
5.166667,0.000220
5.200000,-0.000731
5.233333,-0.001763
5.266667,-0.002658
5.300000,-0.003231
5.333333,-0.003360
5.366667,-0.003000
5.400000,-0.002196
5.433333,-0.001082
5.466667,0.000151
5.500000,0.001299
5.533333,0.002197
5.566667,0.002747
5.600000,0.002928
5.633333,0.002781
5.666667,0.002391
5.700000,0.001871
5.733333,0.001346
5.766667,0.000926
5.800000,0.000674
5.833333,0.000576
5.866667,0.000550
5.900000,0.000491
5.933333,0.000332
5.966667,0.000078
6.000000,-0.000217
6.033333,-0.000502
6.066667,-0.000769
6.100000,-0.001052
6.133333,-0.001381
6.166667,-0.001751
6.200000,-0.002110
6.233333,-0.002398
6.266667,-0.002575
6.300000,-0.002647
6.333333,-0.002644
6.366667,-0.002567
6.400000,-0.002351
6.433333,-0.001877
6.466667,-0.001059
6.500000,0.000076
6.533333,0.001365
6.566667,0.002564
6.600000,0.003453
6.633333,0.003924
6.666667,0.004006
6.700000,0.003824
6.733333,0.003527
6.766667,0.003216
6.800000,0.002918
6.833333,0.002600
6.866667,0.002204
6.900000,0.001686
6.933333,0.001036
6.966667,0.000272
7.000000,-0.000563
7.033333,-0.001421
7.066667,-0.002254
7.100000,-0.003027
7.133333,-0.003705
7.166667,-0.004247
7.200000,-0.004605
7.233333,-0.004749
7.266667,-0.004694
7.300000,-0.004501
7.333333,-0.004240
7.366667,-0.003937
7.400000,-0.003556
7.433333,-0.003017
7.466667,-0.002258
7.500000,-0.001299
7.533333,-0.000267
7.566667,0.000637
7.600000,0.001240
7.633333,0.001493
7.666667,0.001530
7.700000,0.001624
7.733333,0.002075
7.766667,0.003079
7.800000,0.004641
7.833333,0.006580
7.866667,0.008596
7.900000,0.010371
7.933333,0.011638
7.966667,0.012217
8.000000,0.012030
8.033333,0.011090
8.066667,0.009501
8.100000,0.007436
8.133333,0.005102
8.166667,0.002723
8.200000,0.000506
8.233333,-0.001396
8.266667,-0.002950
8.300000,-0.004320
8.333333,-0.005900
8.366667,-0.008234
8.400000,-0.011831
8.433333,-0.016904
8.466667,-0.023131
8.500000,-0.029550
8.533333,-0.034661
8.566667,-0.036760
8.600000,-0.034457
8.633333,-0.027225
8.666667,-0.015735
8.700000,-0.001807
8.733333,0.012098
8.766667,0.023630
8.800000,0.031196
8.833333,0.034252
8.866667,0.033234
8.900000,0.029229
8.933333,0.023576
8.966667,0.017527
9.000000,0.012040
9.033333,0.007705
9.066667,0.004740
9.100000,0.003048
9.133333,0.002286
9.166667,0.001976
9.200000,0.001648
9.233333,0.000978
9.266667,-0.000146
9.300000,-0.001633
9.333333,-0.003268
9.366667,-0.004805
9.400000,-0.006050
9.433333,-0.006920
9.466667,-0.007452
9.500000,-0.007759
9.533333,-0.007956
9.566667,-0.008087
9.600000,-0.008113
9.633333,-0.007946
9.666667,-0.007518
9.700000,-0.006818
9.733333,-0.005888
9.766667,-0.004787
9.800000,-0.003561
9.833333,-0.002249
9.866667,-0.000914
9.900000,0.000334
9.933333,0.001349
9.966667,0.001996
10.000000,0.002221
10.033333,0.002109
10.066667,0.001887
10.100000,0.001854
10.133333,0.002258
10.166667,0.003182
10.200000,0.004480
10.233333,0.005810
10.266667,0.006738
10.300000,0.006894
10.333333,0.006113
10.366667,0.004503
10.400000,0.002416
10.433333,0.000324
10.466667,-0.001341
10.500000,-0.002320
10.533333,-0.002574
10.566667,-0.002248
10.600000,-0.001603
10.633333,-0.000918
10.666667,-0.000413
10.700000,-0.000200
10.733333,-0.000278
10.766667,-0.000555
10.800000,-0.000896
10.833333,-0.001166
10.866667,-0.001277
10.900000,-0.001204
10.933333,-0.000992
10.966667,-0.000731
11.000000,-0.000517
11.033333,-0.000409
11.066667,-0.000394
11.100000,-0.000392
11.133333,-0.000309
11.166667,-0.000104
11.200000,0.000175
11.233333,0.000411
11.266667,0.000485
11.300000,0.000350
11.333333,0.000054
11.366667,-0.000280
11.400000,-0.000508
11.433333,-0.000522
11.466667,-0.000292
11.500000,0.000114
11.533333,0.000538
11.566667,0.000781
11.600000,0.000681
11.633333,0.000197
11.666667,-0.000562
11.700000,-0.001362
11.733333,-0.001924
11.766667,-0.002034
11.800000,-0.001627
11.833333,-0.000815
11.866667,0.000163
11.900000,0.001038
11.933333,0.001619
11.966667,0.001850
12.000000,0.001797
12.033333,0.001592
12.066667,0.001368
12.100000,0.001211
12.133333,0.001140
12.166667,0.001114
12.200000,0.001057
12.233333,0.000889
12.266667,0.000568
12.300000,0.000108
12.333333,-0.000411
12.366667,-0.000867
12.400000,-0.001150
12.433333,-0.001212
12.466667,-0.001093
12.500000,-0.000896
12.533333,-0.000731
12.566667,-0.000655
12.600000,-0.000652
12.633333,-0.000641
12.666667,-0.000513
12.700000,-0.000188
12.733333,0.000339
12.766667,0.000968
12.800000,0.001515
12.833333,0.001766
12.866667,0.001557
12.900000,0.000851
12.933333,-0.000230
12.966667,-0.001434
13.000000,-0.002454
13.033333,-0.003020
13.066667,-0.002971
13.100000,-0.002297
13.133333,-0.001133
13.166667,0.000272
13.200000,0.001611
13.233333,0.002586
13.266667,0.002973
13.300000,0.002678
13.333333,0.001767
13.366667,0.000453
13.400000,-0.000940
13.433333,-0.002057
13.466667,-0.002607
13.500000,-0.002454
13.533333,-0.001687
13.566667,-0.000605
13.600000,0.000391
13.633333,0.000972
13.666667,0.001030
13.700000,0.000706
13.733333,0.000298
13.766667,0.000088
13.800000,0.000207
13.833333,0.000589
13.866667,0.001025
13.900000,0.001290
13.933333,0.001263
13.966667,0.000992
14.000000,0.000658
14.033333,0.000473
14.066667,0.000556
14.100000,0.000864
14.133333,0.001214
14.166667,0.001378
14.200000,0.001193
14.233333,0.000629
14.266667,-0.000206
14.300000,-0.001113
14.333333,-0.001869
14.366667,-0.002291
14.400000,-0.002286
14.433333,-0.001877
14.466667,-0.001208
14.500000,-0.000509
14.533333,-0.000027
14.566667,0.000054
14.600000,-0.000310
14.633333,-0.001003
14.666667,-0.001776
14.700000,-0.002333
14.733333,-0.002422
14.766667,-0.001938
14.800000,-0.000962
14.833333,0.000256
14.866667,0.001396
14.900000,0.002184
14.933333,0.002491
14.966667,0.002360
15.000000,0.001979
15.033333,0.001588
15.066667,0.001390
15.100000,0.001490
15.133333,0.001857
15.166667,0.002334
15.200000,0.002690
15.233333,0.002706
15.266667,0.002270
15.300000,0.001420
15.333333,0.000325
15.366667,-0.000783
15.400000,-0.001686
15.433333,-0.002246
15.466667,-0.002425
15.500000,-0.002281
15.533333,-0.001940
15.566667,-0.001562
15.600000,-0.001300
15.633333,-0.001269
15.666667,-0.001520
15.700000,-0.002025
15.733333,-0.002689
15.766667,-0.003367
15.800000,-0.003901
15.833333,-0.004140
15.866667,-0.003962
15.900000,-0.003286
15.933333,-0.002100
15.966667,-0.000480
16.000000,0.001389
16.033333,0.003236
16.066667,0.004750
16.100000,0.005667
16.133333,0.005851
16.166667,0.005317
16.200000,0.004205
16.233333,0.002716
16.266667,0.001055
16.300000,-0.000589
16.333333,-0.002011
16.366667,-0.002955
16.400000,-0.003134
16.433333,-0.002317
16.466667,-0.000459
16.500000,0.002220
16.533333,0.005245
16.566667,0.008002
16.600000,0.009893
16.633333,0.010489
16.666667,0.009628
16.700000,0.007449
16.733333,0.004370
16.766667,0.001000
16.800000,-0.002007
16.833333,-0.004158
16.866667,-0.005310
16.900000,-0.005752
16.933333,-0.006108
16.966667,-0.007098
17.000000,-0.009228
17.033333,-0.012543
17.066667,-0.016506
17.100000,-0.020080
17.133333,-0.022010
17.166667,-0.021240
17.200000,-0.017337
17.233333,-0.010710
17.266667,-0.002497
17.300000,0.005848
17.333333,0.013024
17.366667,0.018187
17.400000,0.021027
17.433333,0.021686
17.466667,0.020592
17.500000,0.018291
17.533333,0.015321
17.566667,0.012124
17.600000,0.009023
17.633333,0.006223
17.666667,0.003821
17.700000,0.001814
17.733333,0.000103
17.766667,-0.001466
17.800000,-0.003043
17.833333,-0.004697
17.866667,-0.006357
17.900000,-0.007800
17.933333,-0.008724
17.966667,-0.008876
18.000000,-0.008187
18.033333,-0.006840
18.066667,-0.005223
18.100000,-0.003794
18.133333,-0.002897
18.166667,-0.002637
18.200000,-0.002863
18.233333,-0.003232
18.266667,-0.003350
18.300000,-0.002908
18.333333,-0.001795
18.366667,-0.000131
18.400000,0.001786
18.433333,0.003594
18.466667,0.004959
18.500000,0.005646
18.533333,0.005555
18.566667,0.004738
18.600000,0.003386
18.633333,0.001780
18.666667,0.000219
18.700000,-0.001036
18.733333,-0.001816
18.766667,-0.002076
18.800000,-0.001900
18.833333,-0.001464
18.866667,-0.000972
18.900000,-0.000592
18.933333,-0.000403
18.966667,-0.000393
19.000000,-0.000476
19.033333,-0.000535
19.066667,-0.000475
19.100000,-0.000255
19.133333,0.000098
19.166667,0.000520
19.200000,0.000950
19.233333,0.001373
19.266667,0.001824
19.300000,0.002350
19.333333,0.002960
19.366667,0.003593
19.400000,0.004119
19.433333,0.004366
19.466667,0.004181
19.500000,0.003487
19.533333,0.002316
19.566667,0.000809
19.600000,-0.000825
19.633333,-0.002378
19.666667,-0.003702
19.700000,-0.004738
19.733333,-0.005496
19.766667,-0.005999
19.800000,-0.006232
19.833333,-0.006140
19.866667,-0.005658
19.900000,-0.004764
19.933333,-0.003511
19.966667,-0.002030
20.000000,-0.000495
20.033333,0.000917
20.066667,0.002083
20.100000,0.002951
20.133333,0.003542
20.166667,0.003923
20.200000,0.004168
20.233333,0.004317
20.266667,0.004348
20.300000,0.004184
20.333333,0.003738
20.366667,0.002970
20.400000,0.001934
20.433333,0.000780
20.466667,-0.000290
20.500000,-0.001097
20.533333,-0.001550
20.566667,-0.001691
20.600000,-0.001669
20.633333,-0.001671
20.666667,-0.001828
20.700000,-0.002152
20.733333,-0.002526
20.766667,-0.002758
20.800000,-0.002668
20.833333,-0.002159
20.866667,-0.001254
20.900000,-0.000092
20.933333,0.001112
20.966667,0.002114
21.000000,0.002714
21.033333,0.002809
21.066667,0.002428
21.100000,0.001716
21.133333,0.000883
21.166667,0.000135
21.200000,-0.000380
21.233333,-0.000591
21.266667,-0.000495
21.300000,-0.000142
21.333333,0.000384
21.366667,0.000967
21.400000,0.001468
21.433333,0.001736
21.466667,0.001638
21.500000,0.001102
21.533333,0.000157
21.566667,-0.001046
21.600000,-0.002268
21.633333,-0.003251
21.666667,-0.003809
21.700000,-0.003880
21.733333,-0.003525
21.766667,-0.002885
21.800000,-0.002121
21.833333,-0.001367
21.866667,-0.000705
21.900000,-0.000162
21.933333,0.000275
21.966667,0.000628
22.000000,0.000904
22.033333,0.001105
22.066667,0.001244
22.100000,0.001376
22.133333,0.001582
22.166667,0.001935
22.200000,0.002441
22.233333,0.003010
22.266667,0.003464
22.300000,0.003598
22.333333,0.003260
22.366667,0.002443
22.400000,0.001314
22.433333,0.000188
22.466667,-0.000588
22.500000,-0.000770
22.533333,-0.000318
22.566667,0.000569
22.600000,0.001498
22.633333,0.002008
22.666667,0.001722
22.700000,0.000490
22.733333,-0.001527
22.766667,-0.003875
22.800000,-0.005941
22.833333,-0.007161
22.866667,-0.007229
22.900000,-0.006200
22.933333,-0.004444
22.966667,-0.002486
23.000000,-0.000817
23.033333,0.000261
23.066667,0.000698
23.100000,0.000683
23.133333,0.000546
23.166667,0.000627
23.200000,0.001147
23.233333,0.002129
23.266667,0.003387
23.300000,0.004586
23.333333,0.005346
23.366667,0.005382
23.400000,0.004606
23.433333,0.003183
23.466667,0.001486
23.500000,-0.000025
23.533333,-0.000968
23.566667,-0.001171
23.600000,-0.000729
23.633333,0.000049
23.666667,0.000768
23.700000,0.001106
23.733333,0.000924
23.766667,0.000283
23.800000,-0.000613
23.833333,-0.001519
23.866667,-0.002243
23.900000,-0.002697
23.933333,-0.002904
23.966667,-0.002962
24.000000,-0.002985
24.033333,-0.003041
24.066667,-0.003117
24.100000,-0.003113
24.133333,-0.002874
24.166667,-0.002268
24.200000,-0.001256
24.233333,0.000063
24.266667,0.001470
24.300000,0.002694
24.333333,0.003508
24.366667,0.003798
24.400000,0.003588
24.433333,0.003005
24.466667,0.002231
24.500000,0.001449
24.533333,0.000818
24.566667,0.000443
24.600000,0.000345
24.633333,0.000445
24.666667,0.000591
24.700000,0.000615
24.733333,0.000409
24.766667,-0.000022
24.800000,-0.000565
24.833333,-0.001050
24.866667,-0.001323
24.900000,-0.001300
24.933333,-0.000984
24.966667,-0.000460
25.000000,0.000137
25.033333,0.000639
25.066667,0.000875
25.100000,0.000717
25.133333,0.000146
25.166667,-0.000698
25.200000,-0.001535
25.233333,-0.002037
25.266667,-0.001959
25.300000,-0.001247
25.333333,-0.000073
25.366667,0.001216
25.400000,0.002220
25.433333,0.002614
25.466667,0.002265
25.500000,0.001263
25.533333,-0.000109
25.566667,-0.001483
25.600000,-0.002525
25.633333,-0.003037
25.666667,-0.002988
25.700000,-0.002493
25.733333,-0.001754
25.766667,-0.000992
25.800000,-0.000390
25.833333,-0.000048
25.866667,0.000046
25.900000,0.000010
25.933333,0.000022
25.966667,0.000240
26.000000,0.000736
26.033333,0.001471
26.066667,0.002321
26.100000,0.003113
26.133333,0.003662
26.166667,0.003798
26.200000,0.003399
26.233333,0.002414
26.266667,0.000899
26.300000,-0.000962
26.333333,-0.002853
26.366667,-0.004364
26.400000,-0.005081
26.433333,-0.004714
26.466667,-0.003225
26.500000,-0.000890
26.533333,0.001759
26.566667,0.004089
26.600000,0.005571
26.633333,0.005930
26.666667,0.005210
26.700000,0.003705
26.733333,0.001826
26.766667,-0.000034
26.800000,-0.001602
26.833333,-0.002749
26.866667,-0.003473
26.900000,-0.003841
26.933333,-0.003943
26.966667,-0.003863
27.000000,-0.003676
27.033333,-0.003448
27.066667,-0.003222
27.100000,-0.003000
27.133333,-0.002724
27.166667,-0.002284
27.200000,-0.001552
27.233333,-0.000445
27.266667,0.001023
27.300000,0.002718
27.333333,0.004410
27.366667,0.005819
27.400000,0.006680
27.433333,0.006793
27.466667,0.006066
27.500000,0.004546
27.533333,0.002429
27.566667,0.000053
27.600000,-0.002161
27.633333,-0.003800
27.666667,-0.004584
27.700000,-0.004454
27.733333,-0.003592
27.766667,-0.002354
27.800000,-0.001144
27.833333,-0.000270
27.866667,0.000146
27.900000,0.000176
27.933333,0.000030
27.966667,-0.000055
28.000000,0.000086
28.033333,0.000478
28.066667,0.001008
28.100000,0.001474
28.133333,0.001687
28.166667,0.001541
28.200000,0.001054
28.233333,0.000349
28.266667,-0.000393
28.300000,-0.001001
28.333333,-0.001356
28.366667,-0.001429
28.400000,-0.001270
28.433333,-0.000983
28.466667,-0.000675
28.500000,-0.000427
28.533333,-0.000269
28.566667,-0.000187
28.600000,-0.000147
28.633333,-0.000119
28.666667,-0.000102
28.700000,-0.000120
28.733333,-0.000195
28.766667,-0.000311
28.800000,-0.000398
28.833333,-0.000347
28.866667,-0.000053
28.900000,0.000536
28.933333,0.001386
28.966667,0.002355
29.000000,0.003212
29.033333,0.003676
29.066667,0.003489
29.100000,0.002517
29.133333,0.000840
29.166667,-0.001217
29.200000,-0.003146
29.233333,-0.004424
29.266667,-0.004701
29.300000,-0.003931
29.333333,-0.002390
29.366667,-0.000569
29.400000,0.001004
29.433333,0.001939
29.466667,0.002104
29.500000,0.001633
29.533333,0.000850
29.566667,0.000125
29.600000,-0.000255
29.633333,-0.000179
29.666667,0.000267
29.700000,0.000861
29.733333,0.001336
29.766667,0.001495
29.800000,0.001268
29.833333,0.000722
29.866667,0.000025
29.900000,-0.000616
29.933333,-0.001022
29.966667,-0.001099
30.000000,-0.000876
30.033333,-0.000508
30.066667,-0.000229
30.100000,-0.000270
30.133333,-0.000770
30.166667,-0.001708
30.200000,-0.002888
30.233333,-0.003972
30.266667,-0.004573
30.300000,-0.004370
30.333333,-0.003221
30.366667,-0.001233
30.400000,0.001242
30.433333,0.003700
30.466667,0.005639
30.500000,0.006700
30.533333,0.006762
30.566667,0.005936
30.600000,0.004507
30.633333,0.002834
30.666667,0.001254
30.700000,0.000011
30.733333,-0.000786
30.766667,-0.001159
30.800000,-0.001224
30.833333,-0.001146
30.866667,-0.001085
30.900000,-0.001171
30.933333,-0.001484
30.966667,-0.002024
31.000000,-0.002686
31.033333,-0.003254
31.066667,-0.003469
31.100000,-0.003130
31.133333,-0.002200
31.166667,-0.000855
31.200000,0.000564
31.233333,0.001680
31.266667,0.002224
31.300000,0.002120
31.333333,0.001477
31.366667,0.000526
31.400000,-0.000482
31.433333,-0.001352
31.466667,-0.001975
31.500000,-0.002301
31.533333,-0.002298
31.566667,-0.001931
31.600000,-0.001188
31.633333,-0.000127
31.666667,0.001095
31.700000,0.002240
31.733333,0.003048
31.766667,0.003323
31.800000,0.003005
31.833333,0.002200
31.866667,0.001147
31.900000,0.000141
31.933333,-0.000567
31.966667,-0.000849
32.000000,-0.000719
32.033333,-0.000286
32.066667,0.000306
32.100000,0.000940
32.133333,0.001526
32.166667,0.001987
32.200000,0.002230
32.233333,0.002141
32.266667,0.001613
32.300000,0.000596
32.333333,-0.000836
32.366667,-0.002467
32.400000,-0.003966
32.433333,-0.004975
32.466667,-0.005217
32.500000,-0.004592
32.533333,-0.003224
32.566667,-0.001446
32.600000,0.000297
32.633333,0.001607
32.666667,0.002273
32.700000,0.002336
32.733333,0.002038
32.766667,0.001705
32.800000,0.001603
32.833333,0.001835
32.866667,0.002306
32.900000,0.002762
32.933333,0.002900
32.966667,0.002499
33.000000,0.001527
33.033333,0.000159
33.066667,-0.001300
33.100000,-0.002528
33.133333,-0.003303
33.166667,-0.003554
33.200000,-0.003360
33.233333,-0.002892
33.266667,-0.002344
33.300000,-0.001859
33.333333,-0.001482
33.366667,-0.001156
33.400000,-0.000758
33.433333,-0.000173
33.466667,0.000643
33.500000,0.001612
33.533333,0.002537
33.566667,0.003164
33.600000,0.003288
33.633333,0.002839
33.666667,0.001923
33.700000,0.000797
33.733333,-0.000214
33.766667,-0.000819
33.800000,-0.000862
33.833333,-0.000359
33.866667,0.000519
33.900000,0.001508
33.933333,0.002324
33.966667,0.002720
34.000000,0.002529
34.033333,0.001695
34.066667,0.000303
34.100000,-0.001438
34.133333,-0.003232
34.166667,-0.004772
34.200000,-0.005802
34.233333,-0.006140
34.266667,-0.005682
34.300000,-0.004404
34.333333,-0.002393
34.366667,0.000121
34.400000,0.002761
34.433333,0.005053
34.466667,0.006534
34.500000,0.006891
34.533333,0.006069
34.566667,0.004312
34.600000,0.002097
34.633333,-0.000007
