Time_Sec,Amplitude
0.000000,-0.000003
0.033333,-0.000671
0.066667,-0.001235
0.100000,-0.001615
0.133333,-0.001773
0.166667,-0.001718
0.200000,-0.001494
0.233333,-0.001170
0.266667,-0.000819
0.300000,-0.000502
0.333333,-0.000259
0.366667,-0.000100
0.400000,-0.000011
0.433333,0.000033
0.466667,0.000059
0.500000,0.000085
0.533333,0.000122
0.566667,0.000167
0.600000,0.000210
0.633333,0.000239
0.666667,0.000239
0.700000,0.000207
0.733333,0.000150
0.766667,0.000084
0.800000,0.000033
0.833333,0.000016
0.866667,0.000044
0.900000,0.000112
0.933333,0.000203
0.966667,0.000289
1.000000,0.000347
1.033333,0.000362
1.066667,0.000336
1.100000,0.000282
1.133333,0.000218
1.166667,0.000161
1.200000,0.000121
1.233333,0.000098
1.266667,0.000085
1.300000,0.000072
1.333333,0.000050
1.366667,0.000013
1.400000,-0.000035
1.433333,-0.000086
1.466667,-0.000133
1.500000,-0.000170
1.533333,-0.000196
1.566667,-0.000214
1.600000,-0.000228
1.633333,-0.000244
1.666667,-0.000260
1.700000,-0.000271
1.733333,-0.000269
1.766667,-0.000244
1.800000,-0.000190
1.833333,-0.000107
1.866667,-0.000002
1.900000,0.000110
1.933333,0.000204
1.966667,0.000260
2.000000,0.000267
2.033333,0.000229
2.066667,0.000162
2.100000,0.000087
2.133333,0.000024
2.166667,-0.000016
2.200000,-0.000032
2.233333,-0.000030
2.266667,-0.000024
2.300000,-0.000022
2.333333,-0.000030
2.366667,-0.000045
2.400000,-0.000058
2.433333,-0.000062
2.466667,-0.000049
2.500000,-0.000021
2.533333,0.000017
2.566667,0.000054
2.600000,0.000079
2.633333,0.000082
2.666667,0.000063
2.700000,0.000025
2.733333,-0.000019
2.766667,-0.000057
2.800000,-0.000077
2.833333,-0.000073
2.866667,-0.000048
2.900000,-0.000010
2.933333,0.000026
2.966667,0.000050
3.000000,0.000052
3.033333,0.000033
3.066667,0.000002
3.100000,-0.000031
3.133333,-0.000055
3.166667,-0.000062
3.200000,-0.000051
3.233333,-0.000027
3.266667,0.000001
3.300000,0.000024
3.333333,0.000037
3.366667,0.000041
3.400000,0.000045
3.433333,0.000054
3.466667,0.000074
3.500000,0.000101
3.533333,0.000126
3.566667,0.000139
3.600000,0.000127
3.633333,0.000084
3.666667,0.000011
3.700000,-0.000079
3.733333,-0.000166
3.766667,-0.000226
3.800000,-0.000241
3.833333,-0.000205
3.866667,-0.000125
3.900000,-0.000024
3.933333,0.000069
3.966667,0.000128
4.000000,0.000139
4.033333,0.000103
4.066667,0.000036
4.100000,-0.000040
4.133333,-0.000103
4.166667,-0.000137
4.200000,-0.000138
4.233333,-0.000111
4.266667,-0.000067
4.300000,-0.000018
4.333333,0.000023
4.366667,0.000052
4.400000,0.000072
4.433333,0.000088
4.466667,0.000105
4.500000,0.000126
4.533333,0.000148
4.566667,0.000166
4.600000,0.000169
4.633333,0.000150
4.666667,0.000105
4.700000,0.000039
4.733333,-0.000035
4.766667,-0.000102
4.800000,-0.000148
4.833333,-0.000165
4.866667,-0.000154
4.900000,-0.000121
4.933333,-0.000080
4.966667,-0.000043
5.000000,-0.000021
5.033333,-0.000017
5.066667,-0.000025
5.100000,-0.000037
5.133333,-0.000043
5.166667,-0.000036
5.200000,-0.000016
5.233333,0.000014
5.266667,0.000044
5.300000,0.000066
5.333333,0.000072
5.366667,0.000063
5.400000,0.000044
5.433333,0.000024
5.466667,0.000012
5.500000,0.000012
5.533333,0.000023
5.566667,0.000039
5.600000,0.000052
5.633333,0.000054
5.666667,0.000040
5.700000,0.000013
5.733333,-0.000016
5.766667,-0.000038
5.800000,-0.000044
5.833333,-0.000032
5.866667,-0.000006
5.900000,0.000023
5.933333,0.000043
5.966667,0.000044
6.000000,0.000020
6.033333,-0.000022
6.066667,-0.000070
6.100000,-0.000108
6.133333,-0.000123
6.166667,-0.000109
6.200000,-0.000069
6.233333,-0.000015
6.266667,0.000039
6.300000,0.000075
6.333333,0.000084
6.366667,0.000064
6.400000,0.000024
6.433333,-0.000023
6.466667,-0.000059
6.500000,-0.000073
6.533333,-0.000061
6.566667,-0.000026
6.600000,0.000017
6.633333,0.000055
6.666667,0.000074
6.700000,0.000069
6.733333,0.000045
6.766667,0.000013
6.800000,-0.000013
6.833333,-0.000024
6.866667,-0.000015
6.900000,0.000010
6.933333,0.000041
6.966667,0.000063
7.000000,0.000068
7.033333,0.000052
7.066667,0.000021
7.100000,-0.000015
7.133333,-0.000043
7.166667,-0.000055
7.200000,-0.000048
7.233333,-0.000027
7.266667,-0.000001
7.300000,0.000018
7.333333,0.000023
7.366667,0.000011
7.400000,-0.000011
7.433333,-0.000033
7.466667,-0.000046
7.500000,-0.000042
7.533333,-0.000022
7.566667,0.000008
7.600000,0.000039
7.633333,0.000057
7.666667,0.000056
7.700000,0.000036
7.733333,0.000001
7.766667,-0.000038
7.800000,-0.000067
7.833333,-0.000080
7.866667,-0.000072
7.900000,-0.000049
7.933333,-0.000018
7.966667,0.000007
8.000000,0.000020
8.033333,0.000016
8.066667,-0.000000
8.100000,-0.000020
8.133333,-0.000034
8.166667,-0.000035
8.200000,-0.000021
8.233333,0.000005
8.266667,0.000037
8.300000,0.000065
8.333333,0.000080
8.366667,0.000078
8.400000,0.000060
8.433333,0.000031
8.466667,0.000001
8.500000,-0.000023
8.533333,-0.000035
8.566667,-0.000037
8.600000,-0.000031
8.633333,-0.000023
8.666667,-0.000017
8.700000,-0.000012
8.733333,-0.000005
8.766667,0.000010
8.800000,0.000033
8.833333,0.000062
8.866667,0.000088
8.900000,0.000104
8.933333,0.000100
8.966667,0.000075
9.000000,0.000028
9.033333,-0.000032
9.066667,-0.000090
9.100000,-0.000132
9.133333,-0.000143
9.166667,-0.000119
9.200000,-0.000063
9.233333,0.000011
9.266667,0.000085
9.300000,0.000137
9.333333,0.000152
9.366667,0.000125
9.400000,0.000065
9.433333,-0.000013
9.466667,-0.000087
9.500000,-0.000140
9.533333,-0.000162
9.566667,-0.000153
9.600000,-0.000122
9.633333,-0.000082
9.666667,-0.000048
9.700000,-0.000026
9.733333,-0.000015
9.766667,-0.000011
9.800000,-0.000005
9.833333,0.000011
9.866667,0.000037
9.900000,0.000069
9.933333,0.000096
9.966667,0.000107
10.000000,0.000095
10.033333,0.000059
10.066667,0.000008
10.100000,-0.000041
10.133333,-0.000073
10.166667,-0.000075
10.200000,-0.000044
10.233333,0.000014
10.266667,0.000083
10.300000,0.000144
10.333333,0.000179
10.366667,0.000178
10.400000,0.000142
10.433333,0.000079
10.466667,0.000005
10.500000,-0.000064
10.533333,-0.000116
10.566667,-0.000146
10.600000,-0.000154
10.633333,-0.000146
10.666667,-0.000128
10.700000,-0.000106
10.733333,-0.000081
10.766667,-0.000052
10.800000,-0.000017
10.833333,0.000022
10.866667,0.000065
10.900000,0.000104
10.933333,0.000130
10.966667,0.000136
11.000000,0.000116
11.033333,0.000074
11.066667,0.000018
11.100000,-0.000038
11.133333,-0.000082
11.166667,-0.000103
11.200000,-0.000099
11.233333,-0.000075
11.266667,-0.000040
11.300000,-0.000005
11.333333,0.000021
11.366667,0.000034
11.400000,0.000039
11.433333,0.000040
11.466667,0.000045
11.500000,0.000057
11.533333,0.000072
11.566667,0.000083
11.600000,0.000081
11.633333,0.000055
11.666667,0.000004
11.700000,-0.000065
11.733333,-0.000137
11.766667,-0.000195
11.800000,-0.000224
11.833333,-0.000215
11.866667,-0.000170
11.900000,-0.000102
11.933333,-0.000025
11.966667,0.000044
12.000000,0.000095
12.033333,0.000126
12.066667,0.000141
12.100000,0.000150
12.133333,0.000157
12.166667,0.000165
12.200000,0.000170
12.233333,0.000167
12.266667,0.000146
12.300000,0.000104
12.333333,0.000042
12.366667,-0.000030
12.400000,-0.000099
12.433333,-0.000148
12.466667,-0.000166
12.500000,-0.000151
12.533333,-0.000108
12.566667,-0.000052
12.600000,0.000001
12.633333,0.000032
12.666667,0.000033
12.700000,0.000004
12.733333,-0.000043
12.766667,-0.000091
12.800000,-0.000121
12.833333,-0.000122
12.866667,-0.000092
12.900000,-0.000038
12.933333,0.000025
12.966667,0.000079
13.000000,0.000109
13.033333,0.000106
13.066667,0.000075
13.100000,0.000026
13.133333,-0.000027
13.166667,-0.000069
13.200000,-0.000092
13.233333,-0.000090
13.266667,-0.000069
13.300000,-0.000036
13.333333,0.000001
13.366667,0.000038
13.400000,0.000073
13.433333,0.000107
13.466667,0.000140
13.500000,0.000168
13.533333,0.000187
13.566667,0.000188
13.600000,0.000166
13.633333,0.000120
13.666667,0.000055
13.700000,-0.000018
13.733333,-0.000084
13.766667,-0.000132
13.800000,-0.000156
13.833333,-0.000154
13.866667,-0.000130
13.900000,-0.000090
13.933333,-0.000041
13.966667,0.000002
14.000000,0.000027
14.033333,0.000022
14.066667,-0.000014
14.100000,-0.000072
14.133333,-0.000138
14.166667,-0.000194
14.200000,-0.000223
14.233333,-0.000218
14.266667,-0.000177
14.300000,-0.000103
14.333333,-0.000008
14.366667,0.000094
14.400000,0.000189
14.433333,0.000259
14.466667,0.000289
14.500000,0.000275
14.533333,0.000222
14.566667,0.000143
14.600000,0.000061
14.633333,-0.000009
14.666667,-0.000055
14.700000,-0.000074
14.733333,-0.000070
14.766667,-0.000051
14.800000,-0.000024
14.833333,0.000002
14.866667,0.000021
14.900000,0.000030
14.933333,0.000025
14.966667,0.000007
15.000000,-0.000022
15.033333,-0.000055
15.066667,-0.000082
15.100000,-0.000095
15.133333,-0.000087
15.166667,-0.000058
15.200000,-0.000011
15.233333,0.000041
15.266667,0.000086
15.300000,0.000110
15.333333,0.000104
15.366667,0.000070
15.400000,0.000018
15.433333,-0.000038
15.466667,-0.000082
15.500000,-0.000101
15.533333,-0.000092
15.566667,-0.000062
15.600000,-0.000024
15.633333,0.000006
15.666667,0.000018
15.700000,0.000006
15.733333,-0.000021
15.766667,-0.000051
15.800000,-0.000071
15.833333,-0.000070
15.866667,-0.000044
15.900000,-0.000002
15.933333,0.000046
15.966667,0.000083
16.000000,0.000098
16.033333,0.000088
16.066667,0.000056
16.100000,0.000014
16.133333,-0.000025
16.166667,-0.000049
16.200000,-0.000052
16.233333,-0.000036
16.266667,-0.000008
16.300000,0.000021
16.333333,0.000041
16.366667,0.000048
16.400000,0.000045
16.433333,0.000038
16.466667,0.000034
16.500000,0.000037
16.533333,0.000047
16.566667,0.000058
16.600000,0.000063
16.633333,0.000052
16.666667,0.000022
16.700000,-0.000023
16.733333,-0.000073
16.766667,-0.000114
16.800000,-0.000135
16.833333,-0.000127
16.866667,-0.000094
16.900000,-0.000044
16.933333,0.000007
16.966667,0.000046
17.000000,0.000063
17.033333,0.000056
17.066667,0.000033
17.100000,0.000005
17.133333,-0.000014
17.166667,-0.000018
17.200000,-0.000006
17.233333,0.000017
17.266667,0.000041
17.300000,0.000054
17.333333,0.000050
17.366667,0.000027
17.400000,-0.000005
17.433333,-0.000035
17.466667,-0.000053
17.500000,-0.000052
17.533333,-0.000032
17.566667,-0.000000
17.600000,0.000030
17.633333,0.000048
17.666667,0.000043
17.700000,0.000017
17.733333,-0.000022
17.766667,-0.000062
17.800000,-0.000087
17.833333,-0.000090
17.866667,-0.000068
17.900000,-0.000030
17.933333,0.000013
17.966667,0.000047
18.000000,0.000061
18.033333,0.000054
18.066667,0.000032
18.100000,0.000005
18.133333,-0.000013
18.166667,-0.000015
18.200000,0.000002
18.233333,0.000032
18.266667,0.000064
18.300000,0.000086
18.333333,0.000090
18.366667,0.000072
18.400000,0.000041
18.433333,0.000005
18.466667,-0.000024
18.500000,-0.000038
18.533333,-0.000035
18.566667,-0.000021
18.600000,-0.000005
18.633333,0.000003
18.666667,-0.000002
18.700000,-0.000021
18.733333,-0.000046
18.766667,-0.000068
18.800000,-0.000076
18.833333,-0.000066
18.866667,-0.000039
18.900000,-0.000004
18.933333,0.000029
18.966667,0.000047
19.000000,0.000043
19.033333,0.000018
19.066667,-0.000021
19.100000,-0.000061
19.133333,-0.000089
19.166667,-0.000095
19.200000,-0.000076
19.233333,-0.000038
19.266667,0.000008
19.300000,0.000050
19.333333,0.000074
19.366667,0.000077
19.400000,0.000060
19.433333,0.000033
19.466667,0.000006
19.500000,-0.000012
19.533333,-0.000014
19.566667,-0.000001
19.600000,0.000019
19.633333,0.000040
19.666667,0.000052
19.700000,0.000055
19.733333,0.000049
19.766667,0.000040
19.800000,0.000036
19.833333,0.000040
19.866667,0.000051
19.900000,0.000064
19.933333,0.000073
19.966667,0.000068
20.000000,0.000044
20.033333,0.000003
20.066667,-0.000049
20.100000,-0.000100
20.133333,-0.000138
20.166667,-0.000155
20.200000,-0.000147
20.233333,-0.000118
20.266667,-0.000078
20.300000,-0.000039
20.333333,-0.000011
20.366667,0.000002
20.400000,0.000002
20.433333,-0.000004
20.466667,-0.000007
20.500000,-0.000004
20.533333,0.000008
20.566667,0.000025
20.600000,0.000040
20.633333,0.000048
20.666667,0.000045
20.700000,0.000033
20.733333,0.000020
20.766667,0.000014
20.800000,0.000019
20.833333,0.000037
20.866667,0.000062
20.900000,0.000086
20.933333,0.000096
20.966667,0.000085
21.000000,0.000052
21.033333,0.000003
21.066667,-0.000051
21.100000,-0.000094
21.133333,-0.000115
21.166667,-0.000109
21.200000,-0.000079
21.233333,-0.000034
21.266667,0.000011
21.300000,0.000043
21.333333,0.000052
21.366667,0.000035
21.400000,0.000002
21.433333,-0.000037
21.466667,-0.000067
21.500000,-0.000077
21.533333,-0.000064
21.566667,-0.000032
21.600000,0.000010
21.633333,0.000048
21.666667,0.000071
21.700000,0.000074
21.733333,0.000059
21.766667,0.000035
21.800000,0.000012
21.833333,-0.000002
21.866667,-0.000002
21.900000,0.000010
21.933333,0.000028
21.966667,0.000043
22.000000,0.000049
22.033333,0.000044
22.066667,0.000029
22.100000,0.000011
22.133333,-0.000004
22.166667,-0.000012
22.200000,-0.000014
22.233333,-0.000013
22.266667,-0.000016
22.300000,-0.000029
22.333333,-0.000054
22.366667,-0.000087
22.400000,-0.000118
22.433333,-0.000138
22.466667,-0.000137
22.500000,-0.000111
22.533333,-0.000065
22.566667,-0.000007
22.600000,0.000049
22.633333,0.000088
22.666667,0.000105
22.700000,0.000096
22.733333,0.000070
22.766667,0.000040
22.800000,0.000016
22.833333,0.000008
22.866667,0.000019
22.900000,0.000045
22.933333,0.000076
22.966667,0.000102
23.000000,0.000111
23.033333,0.000099
23.066667,0.000070
23.100000,0.000030
23.133333,-0.000010
23.166667,-0.000040
23.200000,-0.000056
23.233333,-0.000057
23.266667,-0.000049
23.300000,-0.000041
23.333333,-0.000042
23.366667,-0.000056
23.400000,-0.000081
23.433333,-0.000112
23.466667,-0.000138
23.500000,-0.000151
23.533333,-0.000147
23.566667,-0.000125
23.600000,-0.000088
23.633333,-0.000042
23.666667,0.000008
23.700000,0.000060
23.733333,0.000112
23.766667,0.000163
23.800000,0.000209
23.833333,0.000242
23.866667,0.000254
23.900000,0.000237
23.933333,0.000185
23.966667,0.000099
24.000000,-0.000008
24.033333,-0.000120
24.066667,-0.000211
24.100000,-0.000263
24.133333,-0.000260
24.166667,-0.000204
24.200000,-0.000109
24.233333,0.000001
24.266667,0.000097
24.300000,0.000155
24.333333,0.000163
24.366667,0.000125
24.400000,0.000057
24.433333,-0.000021
24.466667,-0.000084
24.500000,-0.000118
24.533333,-0.000117
24.566667,-0.000086
24.600000,-0.000040
24.633333,0.000006
24.666667,0.000039
24.700000,0.000052
24.733333,0.000049
24.766667,0.000038
24.800000,0.000027
24.833333,0.000024
24.866667,0.000031
24.900000,0.000043
24.933333,0.000052
24.966667,0.000051
25.000000,0.000034
25.033333,0.000005
25.066667,-0.000030
25.100000,-0.000061
25.133333,-0.000078
25.166667,-0.000077
25.200000,-0.000061
25.233333,-0.000034
25.266667,-0.000009
25.300000,0.000005
25.333333,0.000003
25.366667,-0.000013
25.400000,-0.000034
25.433333,-0.000051
25.466667,-0.000053
25.500000,-0.000036
25.533333,-0.000002
25.566667,0.000039
25.600000,0.000076
25.633333,0.000098
25.666667,0.000097
25.700000,0.000076
25.733333,0.000043
25.766667,0.000009
25.800000,-0.000014
25.833333,-0.000019
25.866667,-0.000005
25.900000,0.000021
25.933333,0.000049
25.966667,0.000067
26.000000,0.000065
26.033333,0.000041
26.066667,-0.000001
26.100000,-0.000050
26.133333,-0.000093
26.166667,-0.000121
26.200000,-0.000125
26.233333,-0.000107
26.266667,-0.000073
26.300000,-0.000034
26.333333,0.000001
26.366667,0.000025
26.400000,0.000037
26.433333,0.000041
26.466667,0.000042
26.500000,0.000043
26.533333,0.000045
26.566667,0.000047
26.600000,0.000045
26.633333,0.000034
26.666667,0.000014
26.700000,-0.000011
26.733333,-0.000034
26.766667,-0.000046
26.800000,-0.000040
26.833333,-0.000017
26.866667,0.000017
26.900000,0.000053
26.933333,0.000079
26.966667,0.000083
27.000000,0.000063
27.033333,0.000022
27.066667,-0.000029
27.100000,-0.000076
27.133333,-0.000106
27.166667,-0.000110
27.200000,-0.000088
27.233333,-0.000048
27.266667,-0.000004
27.300000,0.000028
27.333333,0.000037
27.366667,0.000020
27.400000,-0.000015
27.433333,-0.000055
27.466667,-0.000084
27.500000,-0.000088
27.533333,-0.000063
27.566667,-0.000013
27.600000,0.000052
27.633333,0.000115
27.666667,0.000160
27.700000,0.000179
27.733333,0.000169
27.766667,0.000135
27.800000,0.000088
27.833333,0.000039
27.866667,-0.000002
27.900000,-0.000030
27.933333,-0.000050
27.966667,-0.000066
28.000000,-0.000085
28.033333,-0.000110
28.066667,-0.000136
28.100000,-0.000157
28.133333,-0.000162
28.166667,-0.000145
28.200000,-0.000104
28.233333,-0.000044
28.266667,0.000024
28.300000,0.000084
28.333333,0.000125
28.366667,0.000140
28.400000,0.000131
28.433333,0.000107
28.466667,0.000079
28.500000,0.000057
28.533333,0.000045
28.566667,0.000041
28.600000,0.000038
28.633333,0.000027
28.666667,0.000003
28.700000,-0.000032
28.733333,-0.000071
28.766667,-0.000102
28.800000,-0.000113
28.833333,-0.000099
28.866667,-0.000061
28.900000,-0.000008
28.933333,0.000043
28.966667,0.000079
29.000000,0.000089
29.033333,0.000069
29.066667,0.000027
29.100000,-0.000022
29.133333,-0.000065
29.166667,-0.000088
29.200000,-0.000085
29.233333,-0.000061
29.266667,-0.000026
29.300000,0.000007
29.333333,0.000026
29.366667,0.000029
29.400000,0.000019
29.433333,0.000005
29.466667,-0.000005
29.500000,-0.000003
29.533333,0.000011
29.566667,0.000032
29.600000,0.000052
29.633333,0.000060
29.666667,0.000053
29.700000,0.000032
29.733333,0.000003
29.766667,-0.000024
29.800000,-0.000040
29.833333,-0.000041
29.866667,-0.000028
29.900000,-0.000007
29.933333,0.000012
29.966667,0.000021
30.000000,0.000016
30.033333,-0.000001
30.066667,-0.000023
30.100000,-0.000040
30.133333,-0.000042
30.166667,-0.000028
30.200000,0.000002
30.233333,0.000037
30.266667,0.000068
30.300000,0.000083
30.333333,0.000076
30.366667,0.000049
30.400000,0.000009
30.433333,-0.000031
30.466667,-0.000060
30.500000,-0.000069
30.533333,-0.000057
30.566667,-0.000031
30.600000,-0.000001
30.633333,0.000021
30.666667,0.000028
30.700000,0.000018
30.733333,-0.000003
30.766667,-0.000026
30.800000,-0.000039
30.833333,-0.000038
30.866667,-0.000021
30.900000,0.000003
30.933333,0.000026
30.966667,0.000036
31.000000,0.000028
31.033333,0.000003
31.066667,-0.000029
31.100000,-0.000057
31.133333,-0.000067
31.166667,-0.000055
31.200000,-0.000022
31.233333,0.000023
31.266667,0.000066
31.300000,0.000094
31.333333,0.000097
31.366667,0.000075
31.400000,0.000035
31.433333,-0.000008
31.466667,-0.000042
31.500000,-0.000057
31.533333,-0.000051
31.566667,-0.000028
31.600000,0.000001
31.633333,0.000022
31.666667,0.000027
31.700000,0.000012
31.733333,-0.000015
31.766667,-0.000046
31.800000,-0.000068
31.833333,-0.000072
31.866667,-0.000057
31.900000,-0.000027
31.933333,0.000009
31.966667,0.000040
32.000000,0.000059
32.033333,0.000063
32.066667,0.000056
32.100000,0.000047
32.133333,0.000042
32.166667,0.000045
32.200000,0.000054
32.233333,0.000063
32.266667,0.000063
32.300000,0.000048
32.333333,0.000015
32.366667,-0.000030
32.400000,-0.000073
32.433333,-0.000102
32.466667,-0.000108
32.500000,-0.000087
32.533333,-0.000047
32.566667,0.000000
32.600000,0.000039
32.633333,0.000057
32.666667,0.000049
32.700000,0.000018
32.733333,-0.000024
32.766667,-0.000063
32.800000,-0.000084
32.833333,-0.000082
32.866667,-0.000058
32.900000,-0.000019
32.933333,0.000021
32.966667,0.000049
33.000000,0.000057
33.033333,0.000045
33.066667,0.000021
33.100000,-0.000004
33.133333,-0.000018
33.166667,-0.000014
33.200000,0.000007
33.233333,0.000035
33.266667,0.000060
33.300000,0.000069
33.333333,0.000056
33.366667,0.000023
33.400000,-0.000021
33.433333,-0.000061
33.466667,-0.000085
33.500000,-0.000085
33.533333,-0.000060
33.566667,-0.000019
33.600000,0.000025
33.633333,0.000058
33.666667,0.000069
33.700000,0.000056
33.733333,0.000024
33.766667,-0.000015
33.800000,-0.000048
33.833333,-0.000064
33.866667,-0.000058
33.900000,-0.000032
33.933333,0.000004
33.966667,0.000040
34.000000,0.000066
34.033333,0.000076
34.066667,0.000072
34.100000,0.000060
34.133333,0.000047
34.166667,0.000039
34.200000,0.000036
34.233333,0.000037
34.266667,0.000036
34.300000,0.000027
34.333333,0.000007
34.366667,-0.000023
34.400000,-0.000055
34.433333,-0.000081
34.466667,-0.000094
34.500000,-0.000091
34.533333,-0.000074
34.566667,-0.000050
34.600000,-0.000028
34.633333,-0.000017
34.666667,-0.000022
