# Time_Sec,Amplitude
0.000000,0.001391
0.033333,0.004756
0.066667,0.007657
0.100000,0.009797
0.133333,0.011061
0.166667,0.011490
0.200000,0.011191
0.233333,0.010256
0.266667,0.008737
0.300000,0.006675
0.333333,0.004161
0.366667,0.001369
0.400000,-0.001458
0.433333,-0.004057
0.466667,-0.006213
0.500000,-0.007792
0.533333,-0.008751
0.566667,-0.009112
0.600000,-0.008920
0.633333,-0.008214
0.666667,-0.007033
0.700000,-0.005457
0.733333,-0.003644
0.766667,-0.001829
0.800000,-0.000261
0.833333,0.000898
0.866667,0.001651
0.900000,0.002146
0.933333,0.002576
0.966667,0.003047
1.000000,0.003507
1.033333,0.003773
1.066667,0.003638
1.100000,0.003005
1.133333,0.001976
1.166667,0.000851
1.200000,0.000037
1.233333,-0.000109
1.266667,0.000569
1.300000,0.001938
1.333333,0.003601
1.366667,0.005017
1.400000,0.005695
1.433333,0.005371
1.466667,0.004112
1.500000,0.002278
1.533333,0.000383
1.566667,-0.001115
1.600000,-0.001991
1.633333,-0.002313
1.666667,-0.002379
1.700000,-0.002551
1.733333,-0.003086
1.766667,-0.004031
1.800000,-0.005205
1.833333,-0.006260
1.866667,-0.006798
1.900000,-0.006492
1.933333,-0.005211
1.966667,-0.003094
2.000000,-0.000546
2.033333,0.001871
2.066667,0.003628
2.100000,0.004401
2.133333,0.004154
2.166667,0.003104
2.200000,0.001604
2.233333,0.000033
2.266667,-0.001290
2.300000,-0.002137
2.333333,-0.002374
2.366667,-0.001972
2.400000,-0.001004
2.433333,0.000365
2.466667,0.001898
2.500000,0.003327
2.533333,0.004402
2.566667,0.004944
2.600000,0.004881
2.633333,0.004255
2.666667,0.003211
2.700000,0.001968
2.733333,0.000772
2.766667,-0.000164
2.800000,-0.000728
2.833333,-0.000930
2.866667,-0.000907
2.900000,-0.000860
2.933333,-0.000982
2.966667,-0.001361
3.000000,-0.001940
3.033333,-0.002529
3.066667,-0.002883
3.100000,-0.002817
3.133333,-0.002297
3.166667,-0.001479
3.200000,-0.000656
3.233333,-0.000148
3.266667,-0.000158
3.300000,-0.000689
3.333333,-0.001540
3.366667,-0.002384
3.400000,-0.002882
3.433333,-0.002792
3.466667,-0.002031
3.500000,-0.000690
3.533333,0.001004
3.566667,0.002744
3.600000,0.004213
3.633333,0.005155
3.666667,0.005432
3.700000,0.005047
3.733333,0.004126
3.766667,0.002874
3.800000,0.001510
3.833333,0.000213
3.866667,-0.000916
3.900000,-0.001839
3.933333,-0.002558
3.966667,-0.003081
4.000000,-0.003411
4.033333,-0.003539
4.066667,-0.003444
4.100000,-0.003102
4.133333,-0.002501
4.166667,-0.001668
4.200000,-0.000663
4.233333,0.000443
4.266667,0.001585
4.300000,0.002693
4.333333,0.003668
4.366667,0.004370
4.400000,0.004639
4.433333,0.004357
4.466667,0.003499
4.500000,0.002162
4.533333,0.000549
4.566667,-0.001083
4.600000,-0.002486
4.633333,-0.003467
4.666667,-0.003933
4.700000,-0.003903
4.733333,-0.003507
4.766667,-0.002945
4.800000,-0.002422
4.833333,-0.002065
4.866667,-0.001875
4.900000,-0.001728
4.933333,-0.001442
4.966667,-0.000874
5.000000,0.000016
5.033333,0.001128
5.066667,0.002253
5.100000,0.003143
5.133333,0.003600
5.166667,0.003548
5.200000,0.003055
5.233333,0.002290
5.266667,0.001465
5.300000,0.000768
5.333333,0.000328
5.366667,0.000197
5.400000,0.000356
5.433333,0.000729
5.466667,0.001211
5.500000,0.001688
5.533333,0.002041
5.566667,0.002150
5.600000,0.001887
5.633333,0.001142
5.666667,-0.000133
5.700000,-0.001872
5.733333,-0.003856
5.766667,-0.005727
5.800000,-0.007062
5.833333,-0.007478
5.866667,-0.006758
5.900000,-0.004926
5.933333,-0.002284
5.966667,0.000634
6.000000,0.003188
6.033333,0.004816
6.066667,0.005204
6.100000,0.004383
6.133333,0.002703
6.166667,0.000711
6.200000,-0.001002
6.233333,-0.001959
6.266667,-0.001927
6.300000,-0.000969
6.333333,0.000574
6.366667,0.002200
6.400000,0.003418
6.433333,0.003903
6.466667,0.003603
6.500000,0.002725
6.533333,0.001639
6.566667,0.000726
6.600000,0.000243
6.633333,0.000238
6.666667,0.000533
6.700000,0.000798
6.733333,0.000685
6.766667,-0.000008
6.800000,-0.001228
6.833333,-0.002665
6.866667,-0.003872
6.900000,-0.004450
6.933333,-0.004218
6.966667,-0.003287
7.000000,-0.001995
7.033333,-0.000759
7.066667,0.000083
7.100000,0.000379
7.133333,0.000168
7.166667,-0.000375
7.200000,-0.001020
7.233333,-0.001535
7.266667,-0.001731
7.300000,-0.001502
7.333333,-0.000863
7.366667,0.000050
7.400000,0.001030
7.433333,0.001868
7.466667,0.002406
7.500000,0.002580
7.533333,0.002422
7.566667,0.002047
7.600000,0.001608
7.633333,0.001249
7.666667,0.001054
7.700000,0.001025
7.733333,0.001093
7.766667,0.001152
7.800000,0.001111
7.833333,0.000939
7.866667,0.000691
7.900000,0.000500
7.933333,0.000523
7.966667,0.000863
8.000000,0.001491
8.033333,0.002232
8.066667,0.002805
8.100000,0.002924
8.133333,0.002391
8.166667,0.001184
8.200000,-0.000522
8.233333,-0.002395
8.266667,-0.004049
8.300000,-0.005171
8.333333,-0.005626
8.366667,-0.005490
8.400000,-0.005014
8.433333,-0.004504
8.466667,-0.004184
8.500000,-0.004099
8.533333,-0.004093
8.566667,-0.003887
8.600000,-0.003209
8.633333,-0.001917
8.666667,-0.000071
8.700000,0.002080
8.733333,0.004169
8.766667,0.005821
8.800000,0.006754
8.833333,0.006843
8.866667,0.006135
8.900000,0.004817
8.933333,0.003168
8.966667,0.001497
9.000000,0.000085
9.033333,-0.000865
9.066667,-0.001263
9.100000,-0.001149
9.133333,-0.000665
9.166667,-0.000008
9.200000,0.000632
9.233333,0.001120
9.266667,0.001396
9.300000,0.001457
9.333333,0.001333
9.366667,0.001060
9.400000,0.000678
9.433333,0.000229
9.466667,-0.000234
9.500000,-0.000658
9.533333,-0.000996
9.566667,-0.001228
9.600000,-0.001385
9.633333,-0.001556
9.666667,-0.001876
9.700000,-0.002470
9.733333,-0.003378
9.766667,-0.004483
9.800000,-0.005489
9.833333,-0.005972
9.866667,-0.005518
9.900000,-0.003907
9.933333,-0.001263
9.966667,0.001918
10.000000,0.004892
10.033333,0.006931
10.066667,0.007569
10.100000,0.006751
10.133333,0.004810
10.166667,0.002325
10.200000,-0.000077
10.233333,-0.001895
10.266667,-0.002857
10.300000,-0.002948
10.333333,-0.002360
10.366667,-0.001404
10.400000,-0.000405
10.433333,0.000399
10.466667,0.000900
10.500000,0.001122
10.533333,0.001172
10.566667,0.001168
10.600000,0.001178
10.633333,0.001196
10.666667,0.001172
10.700000,0.001059
10.733333,0.000857
10.766667,0.000631
10.800000,0.000466
10.833333,0.000417
10.866667,0.000468
10.900000,0.000530
10.933333,0.000473
10.966667,0.000182
11.000000,-0.000406
11.033333,-0.001274
11.066667,-0.002325
11.100000,-0.003402
11.133333,-0.004313
11.166667,-0.004874
11.200000,-0.004930
11.233333,-0.004391
11.266667,-0.003250
11.300000,-0.001608
11.333333,0.000332
11.366667,0.002283
11.400000,0.003931
11.433333,0.005000
11.466667,0.005316
11.500000,0.004853
11.533333,0.003748
11.566667,0.002284
11.600000,0.000815
11.633333,-0.000339
11.666667,-0.000993
11.700000,-0.001138
11.733333,-0.000921
11.766667,-0.000568
11.800000,-0.000304
11.833333,-0.000260
11.866667,-0.000439
11.900000,-0.000724
11.933333,-0.000964
11.966667,-0.001064
12.000000,-0.001021
12.033333,-0.000899
12.066667,-0.000760
12.100000,-0.000607
12.133333,-0.000366
12.166667,0.000081
12.200000,0.000818
12.233333,0.001817
12.266667,0.002883
12.300000,0.003695
12.333333,0.003903
12.366667,0.003269
12.400000,0.001770
12.433333,-0.000373
12.466667,-0.002743
12.500000,-0.004837
12.533333,-0.006183
12.566667,-0.006467
12.600000,-0.005617
12.633333,-0.003832
12.666667,-0.001526
12.700000,0.000794
12.733333,0.002667
12.766667,0.003796
12.800000,0.004099
12.833333,0.003706
12.866667,0.002882
12.900000,0.001933
12.933333,0.001102
12.966667,0.000515
13.000000,0.000179
13.033333,0.000039
13.066667,0.000026
13.100000,0.000084
13.133333,0.000178
13.166667,0.000274
13.200000,0.000336
13.233333,0.000305
13.266667,0.000101
13.300000,-0.000353
13.333333,-0.001075
13.366667,-0.001979
13.400000,-0.002886
13.433333,-0.003575
13.466667,-0.003854
13.500000,-0.003609
13.533333,-0.002836
13.566667,-0.001641
13.600000,-0.000218
13.633333,0.001196
13.666667,0.002383
13.700000,0.003195
13.733333,0.003588
13.766667,0.003622
13.800000,0.003413
13.833333,0.003082
13.866667,0.002701
13.900000,0.002278
13.933333,0.001777
13.966667,0.001171
14.000000,0.000476
14.033333,-0.000235
14.066667,-0.000865
14.100000,-0.001345
14.133333,-0.001667
14.166667,-0.001901
14.200000,-0.002151
14.233333,-0.002494
14.266667,-0.002918
14.300000,-0.003307
14.333333,-0.003470
14.366667,-0.003212
14.400000,-0.002420
14.433333,-0.001121
14.466667,0.000502
14.500000,0.002150
14.533333,0.003491
14.566667,0.004269
14.600000,0.004385
14.633333,0.003920
14.666667,0.003103
14.700000,0.002221
14.733333,0.001525
14.766667,0.001135
14.800000,0.000992
14.833333,0.000866
14.866667,0.000437
14.900000,-0.000569
14.933333,-0.002238
14.966667,-0.004376
15.000000,-0.006524
15.033333,-0.008079
15.066667,-0.008487
15.100000,-0.007440
15.133333,-0.005008
15.166667,-0.001653
15.200000,0.001899
15.233333,0.004891
15.266667,0.006786
15.300000,0.007400
15.333333,0.006894
15.366667,0.005630
15.400000,0.004007
15.433333,0.002344
15.466667,0.000832
15.500000,-0.000434
15.533333,-0.001399
15.566667,-0.002015
15.600000,-0.002230
15.633333,-0.002018
15.666667,-0.001419
15.700000,-0.000573
15.733333,0.000288
15.766667,0.000919
15.800000,0.001170
15.833333,0.001059
15.866667,0.000746
15.900000,0.000426
15.933333,0.000211
15.966667,0.000073
16.000000,-0.000112
16.033333,-0.000459
16.066667,-0.000976
16.100000,-0.001528
16.133333,-0.001885
16.166667,-0.001831
16.200000,-0.001276
16.233333,-0.000327
16.266667,0.000718
16.300000,0.001465
16.333333,0.001571
16.366667,0.000899
16.400000,-0.000426
16.433333,-0.002053
16.466667,-0.003528
16.500000,-0.004431
16.533333,-0.004479
16.566667,-0.003601
16.600000,-0.001940
16.633333,0.000175
16.666667,0.002321
16.700000,0.004085
16.733333,0.005160
16.766667,0.005411
16.800000,0.004890
16.833333,0.003801
16.866667,0.002426
16.900000,0.001044
16.933333,-0.000142
16.966667,-0.001018
17.000000,-0.001548
17.033333,-0.001737
17.066667,-0.001613
17.100000,-0.001232
17.133333,-0.000701
17.166667,-0.000178
17.200000,0.000167
17.233333,0.000233
17.266667,0.000039
17.300000,-0.000284
17.333333,-0.000565
17.366667,-0.000678
17.400000,-0.000615
17.433333,-0.000475
17.466667,-0.000409
17.500000,-0.000523
17.533333,-0.000822
17.566667,-0.001211
17.600000,-0.001557
17.633333,-0.001753
17.666667,-0.001758
17.700000,-0.001582
17.733333,-0.001256
17.766667,-0.000790
17.800000,-0.000150
17.833333,0.000715
17.866667,0.001825
17.900000,0.003104
17.933333,0.004361
17.966667,0.005315
18.000000,0.005679
18.033333,0.005247
18.066667,0.003956
18.100000,0.001912
18.133333,-0.000621
18.166667,-0.003260
18.200000,-0.005556
18.233333,-0.007078
18.266667,-0.007507
18.300000,-0.006738
18.333333,-0.004939
18.366667,-0.002528
18.400000,-0.000073
18.433333,0.001870
18.466667,0.002930
18.500000,0.003020
18.533333,0.002349
18.566667,0.001324
18.600000,0.000398
18.633333,-0.000072
18.666667,0.000072
18.700000,0.000756
18.733333,0.001715
18.766667,0.002600
18.800000,0.003090
18.833333,0.002995
18.866667,0.002318
18.900000,0.001258
18.933333,0.000131
18.966667,-0.000740
19.000000,-0.001147
19.033333,-0.001064
19.066667,-0.000647
19.100000,-0.000174
19.133333,0.000069
19.166667,-0.000083
19.200000,-0.000597
19.233333,-0.001238
19.266667,-0.001663
19.300000,-0.001581
19.333333,-0.000893
19.366667,0.000239
19.400000,0.001429
19.433333,0.002206
19.466667,0.002186
19.500000,0.001223
19.533333,-0.000513
19.566667,-0.002576
19.600000,-0.004377
19.633333,-0.005373
19.666667,-0.005247
19.700000,-0.004001
19.733333,-0.001952
19.766667,0.000374
19.800000,0.002400
19.833333,0.003669
19.866667,0.003983
19.900000,0.003452
19.933333,0.002427
19.966667,0.001341
20.000000,0.000542
20.033333,0.000180
20.066667,0.000187
20.100000,0.000355
20.133333,0.000450
20.166667,0.000319
20.200000,-0.000053
20.233333,-0.000556
20.266667,-0.001014
20.300000,-0.001249
20.333333,-0.001144
20.366667,-0.000672
20.400000,0.000087
20.433333,0.000975
20.466667,0.001811
20.500000,0.002452
20.533333,0.002816
20.566667,0.002870
20.600000,0.002597
20.633333,0.001974
20.666667,0.000981
20.700000,-0.000357
20.733333,-0.001926
20.766667,-0.003506
20.800000,-0.004802
20.833333,-0.005530
20.866667,-0.005518
20.900000,-0.004769
20.933333,-0.003466
20.966667,-0.001902
21.000000,-0.000388
21.033333,0.000846
21.066667,0.001712
21.100000,0.002270
21.133333,0.002671
21.166667,0.003054
21.200000,0.003463
21.233333,0.003823
21.266667,0.003976
21.300000,0.003765
21.333333,0.003101
21.366667,0.002008
21.400000,0.000634
21.433333,-0.000790
21.466667,-0.002008
21.500000,-0.002800
21.533333,-0.003025
21.566667,-0.002663
21.600000,-0.001843
21.633333,-0.000837
21.666667,0.000004
21.700000,0.000365
21.733333,0.000094
21.766667,-0.000738
21.800000,-0.001854
21.833333,-0.002872
21.866667,-0.003425
21.900000,-0.003273
21.933333,-0.002378
21.966667,-0.000917
22.000000,0.000776
22.033333,0.002331
22.066667,0.003471
22.100000,0.004082
22.133333,0.004220
22.166667,0.004057
22.200000,0.003801
22.233333,0.003612
22.266667,0.003545
22.300000,0.003527
22.333333,0.003373
22.366667,0.002846
22.400000,0.001738
22.433333,-0.000048
22.466667,-0.002435
22.500000,-0.005149
22.533333,-0.007764
22.566667,-0.009787
22.600000,-0.010762
22.633333,-0.010368
22.666667,-0.008498
22.700000,-0.005319
22.733333,-0.001302
22.766667,0.002827
22.800000,0.006231
22.833333,0.008211
22.866667,0.008442
22.900000,0.007084
22.933333,0.004698
22.966667,0.002037
23.000000,-0.000208
23.033333,-0.001593
23.066667,-0.001998
23.100000,-0.001590
23.133333,-0.000711
23.166667,0.000260
23.200000,0.001025
23.233333,0.001438
23.266667,0.001523
23.300000,0.001434
23.333333,0.001374
23.366667,0.001496
23.400000,0.001827
23.433333,0.002250
23.466667,0.002535
23.500000,0.002424
23.533333,0.001726
23.566667,0.000410
23.600000,-0.001350
23.633333,-0.003211
23.666667,-0.004775
23.700000,-0.005711
23.733333,-0.005837
23.766667,-0.005143
23.800000,-0.003760
23.833333,-0.001924
23.866667,0.000072
23.900000,0.001917
23.933333,0.003321
23.966667,0.004065
24.000000,0.004050
24.033333,0.003338
24.066667,0.002149
24.100000,0.000809
24.133333,-0.000350
24.166667,-0.001096
24.200000,-0.001359
24.233333,-0.001230
24.266667,-0.000899
24.300000,-0.000572
24.333333,-0.000398
24.366667,-0.000432
24.400000,-0.000646
24.433333,-0.000960
24.466667,-0.001276
24.500000,-0.001518
24.533333,-0.001640
24.566667,-0.001629
24.600000,-0.001490
24.633333,-0.001240
24.666667,-0.000911
24.700000,-0.000544
24.733333,-0.000187
24.766667,0.000130
24.800000,0.000426
24.833333,0.000792
24.866667,0.001379
24.900000,0.002337
24.933333,0.003715
24.966667,0.005372
25.000000,0.006956
25.033333,0.007965
25.066667,0.007894
25.100000,0.006427
25.133333,0.003592
25.166667,-0.000190
25.200000,-0.004215
25.233333,-0.007714
25.266667,-0.010087
25.300000,-0.011053
25.333333,-0.010664
25.366667,-0.009225
25.400000,-0.007164
25.433333,-0.004892
25.466667,-0.002709
25.500000,-0.000746
25.533333,0.001019
25.566667,0.002708
25.600000,0.004461
25.633333,0.006365
25.666667,0.008389
25.700000,0.010369
25.733333,0.012023
25.766667,0.012995
25.800000,0.012942
25.833333,0.011607
25.866667,0.008898
25.900000,0.004920
25.933333,0.000006
25.966667,-0.005305
26.000000,-0.010338
26.033333,-0.014424
26.066667,-0.017054
26.100000,-0.017992
26.133333,-0.017283
26.166667,-0.015192
26.200000,-0.012097
26.233333,-0.008389
26.266667,-0.004429
26.300000,-0.000538
26.333333,0.002993
26.366667,0.005911
26.400000,0.008046
26.433333,0.009348
26.466667,0.009900
26.500000,0.009867
26.533333,0.009419
26.566667,0.008667
26.600000,0.007654
26.633333,0.006394
26.666667,0.004927
26.700000,0.003339
26.733333,0.001754
26.766667,0.000301
26.800000,-0.000908
26.833333,-0.001805
26.866667,-0.002366
26.900000,-0.002624
26.933333,-0.002675
26.966667,-0.002671
27.000000,-0.002774
27.033333,-0.003078
27.066667,-0.003549
27.100000,-0.004006
27.133333,-0.004187
27.166667,-0.003855
27.200000,-0.002920
27.233333,-0.001510
27.266667,0.000052
27.300000,0.001360
27.333333,0.002096
27.366667,0.002163
27.400000,0.001703
27.433333,0.001002
27.466667,0.000341
27.500000,-0.000099
27.533333,-0.000255
27.566667,-0.000167
27.600000,0.000054
27.633333,0.000275
27.666667,0.000392
27.700000,0.000372
27.733333,0.000262
27.766667,0.000169
27.800000,0.000203
27.833333,0.000417
27.866667,0.000763
27.900000,0.001099
27.933333,0.001255
27.966667,0.001123
28.000000,0.000720
28.033333,0.000177
28.066667,-0.000337
28.100000,-0.000693
28.133333,-0.000856
28.166667,-0.000880
28.200000,-0.000868
28.233333,-0.000916
28.266667,-0.001058
28.300000,-0.001262
28.333333,-0.001448
28.366667,-0.001547
28.400000,-0.001520
28.433333,-0.001365
28.466667,-0.001094
28.500000,-0.000722
28.533333,-0.000276
28.566667,0.000201
28.600000,0.000667
28.633333,0.001107
28.666667,0.001557
28.700000,0.002086
28.733333,0.002730
28.766667,0.003430
28.800000,0.004024
28.833333,0.004295
28.866667,0.004072
28.900000,0.003306
28.933333,0.002104
28.966667,0.000710
29.000000,-0.000580
29.033333,-0.001520
29.066667,-0.002004
29.100000,-0.002108
29.133333,-0.002029
29.166667,-0.001988
29.200000,-0.002126
29.233333,-0.002462
29.266667,-0.002924
29.300000,-0.003426
29.333333,-0.003926
29.366667,-0.004413
29.400000,-0.004839
29.433333,-0.005046
29.466667,-0.004767
29.500000,-0.003760
29.533333,-0.001993
29.566667,0.000271
29.600000,0.002552
29.633333,0.004379
29.666667,0.005481
29.700000,0.005855
29.733333,0.005682
29.766667,0.005189
29.800000,0.004535
29.833333,0.003780
29.866667,0.002933
29.900000,0.002017
29.933333,0.001107
29.966667,0.000335
30.000000,-0.000149
30.033333,-0.000235
30.066667,0.000086
30.100000,0.000694
30.133333,0.001348
30.166667,0.001746
30.200000,0.001615
30.233333,0.000800
30.266667,-0.000684
30.300000,-0.002633
30.333333,-0.004685
30.366667,-0.006405
30.400000,-0.007400
30.433333,-0.007440
30.466667,-0.006540
30.500000,-0.004946
30.533333,-0.003025
30.566667,-0.001118
30.600000,0.000574
30.633333,0.001998
30.666667,0.003192
30.700000,0.004192
30.733333,0.004984
30.766667,0.005494
30.800000,0.005621
30.833333,0.005279
30.866667,0.004431
30.900000,0.003113
30.933333,0.001440
30.966667,-0.000396
31.000000,-0.002126
31.033333,-0.003441
31.066667,-0.004067
31.100000,-0.003860
31.133333,-0.002887
31.166667,-0.001437
31.200000,0.000052
31.233333,0.001125
31.266667,0.001468
31.300000,0.001025
31.333333,0.000024
31.366667,-0.001107
31.400000,-0.001917
31.433333,-0.002113
31.466667,-0.001670
31.500000,-0.000808
31.533333,0.000135
31.566667,0.000872
31.600000,0.001265
31.633333,0.001332
31.666667,0.001164
31.700000,0.000848
31.733333,0.000424
31.766667,-0.000096
31.800000,-0.000672
31.833333,-0.001202
31.866667,-0.001522
31.900000,-0.001458
31.933333,-0.000894
31.966667,0.000164
32.000000,0.001556
32.033333,0.002998
32.066667,0.004144
32.100000,0.004692
32.133333,0.004473
32.166667,0.003493
32.200000,0.001941
32.233333,0.000130
32.266667,-0.001581
32.300000,-0.002894
32.333333,-0.003653
32.366667,-0.003883
32.400000,-0.003747
32.433333,-0.003443
32.466667,-0.003093
32.500000,-0.002683
32.533333,-0.002087
32.566667,-0.001158
32.600000,0.000166
32.633333,0.001779
32.666667,0.003402
32.700000,0.004645
32.733333,0.005122
32.766667,0.004593
32.800000,0.003055
32.833333,0.000756
32.866667,-0.001873
32.900000,-0.004329
32.933333,-0.006141
32.966667,-0.006959
33.000000,-0.006617
33.033333,-0.005181
33.066667,-0.002946
33.100000,-0.000386
33.133333,0.001986
33.166667,0.003767
33.200000,0.004770
33.233333,0.005034
33.266667,0.004758
33.300000,0.004184
33.333333,0.003494
33.366667,0.002753
33.400000,0.001919
33.433333,0.000907
33.466667,-0.000317
33.500000,-0.001677
33.533333,-0.002965
33.566667,-0.003872
33.600000,-0.004088
33.633333,-0.003418
33.666667,-0.001900
33.700000,0.000159
33.733333,0.002265
33.766667,0.003905
33.800000,0.004729
33.833333,0.004643
33.866667,0.003784
33.900000,0.002429
33.933333,0.000891
33.966667,-0.000547
34.000000,-0.001676
34.033333,-0.002379
34.066667,-0.002636
34.100000,-0.002521
34.133333,-0.002186
34.166667,-0.001826
34.200000,-0.001620
34.233333,-0.001678
34.266667,-0.002003
34.300000,-0.002500
34.333333,-0.003011
34.366667,-0.003380
34.400000,-0.003485
34.433333,-0.003253
34.466667,-0.002655
34.500000,-0.001705
34.533333,-0.000473
34.566667,0.000916
34.600000,0.002290
34.633333,0.003473
