Time_Sec,Amplitude
0.000000,-0.000015
0.033333,-0.000118
0.066667,-0.000200
0.100000,-0.000248
0.133333,-0.000253
0.166667,-0.000220
0.200000,-0.000163
0.233333,-0.000095
0.266667,-0.000032
0.300000,0.000021
0.333333,0.000058
0.366667,0.000080
0.400000,0.000086
0.433333,0.000081
0.466667,0.000067
0.500000,0.000051
0.533333,0.000036
0.566667,0.000026
0.600000,0.000023
0.633333,0.000024
0.666667,0.000028
0.700000,0.000034
0.733333,0.000044
0.766667,0.000057
0.800000,0.000075
0.833333,0.000094
0.866667,0.000106
0.900000,0.000103
0.933333,0.000077
0.966667,0.000025
1.000000,-0.000049
1.033333,-0.000135
1.066667,-0.000216
1.100000,-0.000273
1.133333,-0.000294
1.166667,-0.000272
1.200000,-0.000211
1.233333,-0.000127
1.266667,-0.000038
1.300000,0.000036
1.333333,0.000080
1.366667,0.000091
1.400000,0.000074
1.433333,0.000041
1.466667,0.000008
1.500000,-0.000010
1.533333,-0.000005
1.566667,0.000024
1.600000,0.000070
1.633333,0.000118
1.666667,0.000159
1.700000,0.000185
1.733333,0.000197
1.766667,0.000199
1.800000,0.000197
1.833333,0.000194
1.866667,0.000187
1.900000,0.000169
1.933333,0.000130
1.966667,0.000065
2.000000,-0.000027
2.033333,-0.000132
2.066667,-0.000228
2.100000,-0.000291
2.133333,-0.000303
2.166667,-0.000261
2.200000,-0.000179
2.233333,-0.000080
2.266667,0.000004
2.300000,0.000051
2.333333,0.000050
2.366667,0.000006
2.400000,-0.000061
2.433333,-0.000128
2.466667,-0.000173
2.500000,-0.000180
2.533333,-0.000148
2.566667,-0.000083
2.600000,-0.000003
2.633333,0.000075
2.666667,0.000136
2.700000,0.000172
2.733333,0.000180
2.766667,0.000163
2.800000,0.000125
2.833333,0.000074
2.866667,0.000017
2.900000,-0.000038
2.933333,-0.000083
2.966667,-0.000115
3.000000,-0.000129
3.033333,-0.000120
3.066667,-0.000083
3.100000,-0.000018
3.133333,0.000068
3.166667,0.000161
3.200000,0.000242
3.233333,0.000293
3.266667,0.000302
3.300000,0.000268
3.333333,0.000199
3.366667,0.000108
3.400000,0.000009
3.433333,-0.000083
3.466667,-0.000158
3.500000,-0.000212
3.533333,-0.000243
3.566667,-0.000254
3.600000,-0.000247
3.633333,-0.000221
3.666667,-0.000172
3.700000,-0.000101
3.733333,-0.000011
3.766667,0.000083
3.800000,0.000160
3.833333,0.000206
3.866667,0.000213
3.900000,0.000184
3.933333,0.000127
3.966667,0.000050
4.000000,-0.000035
4.033333,-0.000118
4.066667,-0.000186
4.100000,-0.000229
4.133333,-0.000236
4.166667,-0.000206
4.200000,-0.000142
4.233333,-0.000054
4.266667,0.000039
4.300000,0.000120
4.333333,0.000171
4.366667,0.000185
4.400000,0.000163
4.433333,0.000114
4.466667,0.000054
4.500000,-0.000002
4.533333,-0.000043
4.566667,-0.000062
4.600000,-0.000062
4.633333,-0.000048
4.666667,-0.000027
4.700000,-0.000002
4.733333,0.000023
4.766667,0.000050
4.800000,0.000079
4.833333,0.000109
4.866667,0.000134
4.900000,0.000150
4.933333,0.000147
4.966667,0.000120
5.000000,0.000066
5.033333,-0.000008
5.066667,-0.000091
5.100000,-0.000164
5.133333,-0.000212
5.166667,-0.000222
5.200000,-0.000196
5.233333,-0.000142
5.266667,-0.000079
5.300000,-0.000029
5.333333,-0.000007
5.366667,-0.000015
5.400000,-0.000044
5.433333,-0.000078
5.466667,-0.000096
5.500000,-0.000084
5.533333,-0.000035
5.566667,0.000043
5.600000,0.000135
5.633333,0.000218
5.666667,0.000274
5.700000,0.000288
5.733333,0.000261
5.766667,0.000200
5.800000,0.000123
5.833333,0.000045
5.866667,-0.000018
5.900000,-0.000061
5.933333,-0.000083
5.966667,-0.000091
6.000000,-0.000095
6.033333,-0.000102
6.066667,-0.000113
6.100000,-0.000123
6.133333,-0.000127
6.166667,-0.000119
6.200000,-0.000096
6.233333,-0.000064
6.266667,-0.000029
6.300000,-0.000000
6.333333,0.000016
6.366667,0.000019
6.400000,0.000012
6.433333,0.000005
6.466667,0.000003
6.500000,0.000012
6.533333,0.000031
6.566667,0.000055
6.600000,0.000076
6.633333,0.000084
6.666667,0.000073
6.700000,0.000043
6.733333,0.000001
6.766667,-0.000042
6.800000,-0.000073
6.833333,-0.000083
6.866667,-0.000070
6.900000,-0.000041
6.933333,-0.000007
6.966667,0.000021
7.000000,0.000033
7.033333,0.000029
7.066667,0.000013
7.100000,-0.000005
7.133333,-0.000015
7.166667,-0.000011
7.200000,0.000012
7.233333,0.000048
7.266667,0.000087
7.300000,0.000117
7.333333,0.000127
7.366667,0.000112
7.400000,0.000074
7.433333,0.000025
7.466667,-0.000025
7.500000,-0.000067
7.533333,-0.000094
7.566667,-0.000107
7.600000,-0.000108
7.633333,-0.000103
7.666667,-0.000096
7.700000,-0.000087
7.733333,-0.000075
7.766667,-0.000058
7.800000,-0.000035
7.833333,-0.000004
7.866667,0.000031
7.900000,0.000064
7.933333,0.000088
7.966667,0.000096
8.000000,0.000086
8.033333,0.000061
8.066667,0.000027
8.100000,-0.000003
8.133333,-0.000021
8.166667,-0.000021
8.200000,-0.000003
8.233333,0.000025
8.266667,0.000055
8.300000,0.000074
8.333333,0.000075
8.366667,0.000056
8.400000,0.000023
8.433333,-0.000016
8.466667,-0.000051
8.500000,-0.000073
8.533333,-0.000080
8.566667,-0.000076
8.600000,-0.000065
8.633333,-0.000055
8.666667,-0.000049
8.700000,-0.000047
8.733333,-0.000046
8.766667,-0.000040
8.800000,-0.000023
8.833333,0.000003
8.866667,0.000034
8.900000,0.000061
8.933333,0.000076
8.966667,0.000071
9.000000,0.000045
9.033333,0.000006
9.066667,-0.000034
9.100000,-0.000059
9.133333,-0.000060
9.166667,-0.000035
9.200000,0.000011
9.233333,0.000064
9.266667,0.000107
9.300000,0.000125
9.333333,0.000111
9.366667,0.000068
9.400000,0.000009
9.433333,-0.000048
9.466667,-0.000085
9.500000,-0.000093
9.533333,-0.000071
9.566667,-0.000027
9.600000,0.000023
9.633333,0.000063
9.666667,0.000081
9.700000,0.000070
9.733333,0.000036
9.766667,-0.000011
9.800000,-0.000057
9.833333,-0.000091
9.866667,-0.000104
9.900000,-0.000097
9.933333,-0.000075
9.966667,-0.000049
10.000000,-0.000028
10.033333,-0.000018
10.066667,-0.000017
10.100000,-0.000020
10.133333,-0.000018
10.166667,-0.000006
10.200000,0.000018
10.233333,0.000051
10.266667,0.000085
10.300000,0.000108
10.333333,0.000115
10.366667,0.000102
10.400000,0.000075
10.433333,0.000042
10.466667,0.000014
10.500000,-0.000004
10.533333,-0.000013
10.566667,-0.000017
10.600000,-0.000025
10.633333,-0.000041
10.666667,-0.000069
10.700000,-0.000102
10.733333,-0.000130
10.766667,-0.000139
10.800000,-0.000120
10.833333,-0.000073
10.866667,-0.000004
10.900000,0.000071
10.933333,0.000136
10.966667,0.000173
11.000000,0.000175
11.033333,0.000144
11.066667,0.000090
11.100000,0.000030
11.133333,-0.000019
11.166667,-0.000047
11.200000,-0.000050
11.233333,-0.000034
11.266667,-0.000011
11.300000,0.000006
11.333333,0.000008
11.366667,-0.000010
11.400000,-0.000040
11.433333,-0.000073
11.466667,-0.000096
11.500000,-0.000101
11.533333,-0.000088
11.566667,-0.000060
11.600000,-0.000028
11.633333,-0.000000
11.666667,0.000014
11.700000,0.000015
11.733333,0.000007
11.766667,-0.000002
11.800000,-0.000002
11.833333,0.000010
11.866667,0.000035
11.900000,0.000065
11.933333,0.000092
11.966667,0.000104
12.000000,0.000095
12.033333,0.000066
12.066667,0.000024
12.100000,-0.000017
12.133333,-0.000047
12.166667,-0.000057
12.200000,-0.000047
12.233333,-0.000025
12.266667,0.000000
12.300000,0.000016
12.333333,0.000015
12.366667,-0.000002
12.400000,-0.000028
12.433333,-0.000055
12.466667,-0.000071
12.500000,-0.000071
12.533333,-0.000052
12.566667,-0.000021
12.600000,0.000012
12.633333,0.000037
12.666667,0.000045
12.700000,0.000037
12.733333,0.000019
12.766667,0.000001
12.800000,-0.000005
12.833333,0.000005
12.866667,0.000029
12.900000,0.000061
12.933333,0.000088
12.966667,0.000099
13.000000,0.000089
13.033333,0.000058
13.066667,0.000016
13.100000,-0.000028
13.133333,-0.000060
13.166667,-0.000074
13.200000,-0.000068
13.233333,-0.000048
13.266667,-0.000023
13.300000,-0.000004
13.333333,0.000000
13.366667,-0.000012
13.400000,-0.000036
13.433333,-0.000062
13.466667,-0.000081
13.500000,-0.000086
13.533333,-0.000074
13.566667,-0.000048
13.600000,-0.000016
13.633333,0.000012
13.666667,0.000029
13.700000,0.000034
13.733333,0.000031
13.766667,0.000026
13.800000,0.000026
13.833333,0.000033
13.866667,0.000047
13.900000,0.000065
13.933333,0.000079
13.966667,0.000084
14.000000,0.000074
14.033333,0.000050
14.066667,0.000018
14.100000,-0.000014
14.133333,-0.000038
14.166667,-0.000046
14.200000,-0.000038
14.233333,-0.000019
14.266667,0.000002
14.300000,0.000014
14.333333,0.000007
14.366667,-0.000017
14.400000,-0.000052
14.433333,-0.000084
14.466667,-0.000102
14.500000,-0.000095
14.533333,-0.000061
14.566667,-0.000007
14.600000,0.000053
14.633333,0.000101
14.666667,0.000125
14.700000,0.000116
14.733333,0.000080
14.766667,0.000027
14.800000,-0.000025
14.833333,-0.000061
14.866667,-0.000072
14.900000,-0.000060
14.933333,-0.000033
14.966667,-0.000004
15.000000,0.000014
15.033333,0.000017
15.066667,0.000006
15.100000,-0.000013
15.133333,-0.000030
15.166667,-0.000037
15.200000,-0.000030
15.233333,-0.000012
15.266667,0.000011
15.300000,0.000030
15.333333,0.000040
15.366667,0.000040
15.400000,0.000031
15.433333,0.000021
15.466667,0.000015
15.500000,0.000014
15.533333,0.000019
15.566667,0.000025
15.600000,0.000025
15.633333,0.000015
15.666667,-0.000006
15.700000,-0.000032
15.733333,-0.000055
15.766667,-0.000068
15.800000,-0.000064
15.833333,-0.000046
15.866667,-0.000019
15.900000,0.000009
15.933333,0.000026
15.966667,0.000026
16.000000,0.000007
16.033333,-0.000024
16.066667,-0.000057
16.100000,-0.000077
16.133333,-0.000076
16.166667,-0.000049
16.200000,-0.000001
16.233333,0.000057
16.266667,0.000110
16.300000,0.000145
16.333333,0.000153
16.366667,0.000135
16.400000,0.000098
16.433333,0.000053
16.466667,0.000013
16.500000,-0.000015
16.533333,-0.000028
16.566667,-0.000030
16.600000,-0.000031
16.633333,-0.000037
16.666667,-0.000054
16.700000,-0.000078
16.733333,-0.000103
16.766667,-0.000117
16.800000,-0.000116
16.833333,-0.000096
16.866667,-0.000061
16.900000,-0.000017
16.933333,0.000024
16.966667,0.000055
17.000000,0.000068
17.033333,0.000066
17.066667,0.000052
17.100000,0.000037
17.133333,0.000026
17.166667,0.000026
17.200000,0.000035
17.233333,0.000048
17.266667,0.000056
17.300000,0.000050
17.333333,0.000026
17.366667,-0.000014
17.400000,-0.000061
17.433333,-0.000101
17.466667,-0.000121
17.500000,-0.000114
17.533333,-0.000080
17.566667,-0.000027
17.600000,0.000030
17.633333,0.000076
17.666667,0.000100
17.700000,0.000099
17.733333,0.000078
17.766667,0.000047
17.800000,0.000020
17.833333,0.000005
17.866667,0.000007
17.900000,0.000020
17.933333,0.000032
17.966667,0.000035
18.000000,0.000020
18.033333,-0.000011
18.066667,-0.000052
18.100000,-0.000089
18.133333,-0.000112
18.166667,-0.000115
18.200000,-0.000095
18.233333,-0.000059
18.266667,-0.000017
18.300000,0.000020
18.333333,0.000043
18.366667,0.000050
18.400000,0.000046
18.433333,0.000038
18.466667,0.000033
18.500000,0.000038
18.533333,0.000050
18.566667,0.000065
18.600000,0.000074
18.633333,0.000070
18.666667,0.000049
18.700000,0.000015
18.733333,-0.000022
18.766667,-0.000051
18.800000,-0.000064
18.833333,-0.000058
18.866667,-0.000039
18.900000,-0.000016
18.933333,0.000003
18.966667,0.000008
19.000000,-0.000003
19.033333,-0.000027
19.066667,-0.000055
19.100000,-0.000076
19.133333,-0.000082
19.166667,-0.000070
19.200000,-0.000043
19.233333,-0.000009
19.266667,0.000019
19.300000,0.000034
19.333333,0.000030
19.366667,0.000013
19.400000,-0.000007
19.433333,-0.000016
19.466667,-0.000005
19.500000,0.000028
19.533333,0.000075
19.566667,0.000122
19.600000,0.000153
19.633333,0.000156
19.666667,0.000125
19.700000,0.000068
19.733333,-0.000000
19.766667,-0.000061
19.800000,-0.000100
19.833333,-0.000108
19.866667,-0.000087
19.900000,-0.000049
19.933333,-0.000009
19.966667,0.000016
20.000000,0.000015
20.033333,-0.000010
20.066667,-0.000051
20.100000,-0.000091
20.133333,-0.000115
20.166667,-0.000110
20.200000,-0.000075
20.233333,-0.000021
20.266667,0.000038
20.300000,0.000083
20.333333,0.000100
20.366667,0.000088
20.400000,0.000053
20.433333,0.000011
20.466667,-0.000023
20.500000,-0.000036
20.533333,-0.000027
20.566667,-0.000000
20.600000,0.000032
20.633333,0.000056
20.666667,0.000062
20.700000,0.000048
20.733333,0.000019
20.766667,-0.000014
20.800000,-0.000039
20.833333,-0.000048
20.866667,-0.000038
20.900000,-0.000015
20.933333,0.000011
20.966667,0.000031
21.000000,0.000037
21.033333,0.000026
21.066667,0.000005
21.100000,-0.000016
21.133333,-0.000029
21.166667,-0.000028
21.200000,-0.000013
21.233333,0.000010
21.266667,0.000031
21.300000,0.000040
21.333333,0.000031
21.366667,0.000006
21.400000,-0.000028
21.433333,-0.000057
21.466667,-0.000071
21.500000,-0.000065
21.533333,-0.000039
21.566667,-0.000003
21.600000,0.000030
21.633333,0.000049
21.666667,0.000046
21.700000,0.000023
21.733333,-0.000011
21.766667,-0.000042
21.800000,-0.000058
21.833333,-0.000052
21.866667,-0.000024
21.900000,0.000016
21.933333,0.000055
21.966667,0.000080
22.000000,0.000083
22.033333,0.000064
22.066667,0.000031
22.100000,-0.000004
22.133333,-0.000028
22.166667,-0.000033
22.200000,-0.000018
22.233333,0.000010
22.266667,0.000041
22.300000,0.000059
22.333333,0.000056
22.366667,0.000029
22.400000,-0.000015
22.433333,-0.000065
22.466667,-0.000106
22.500000,-0.000126
22.533333,-0.000122
22.566667,-0.000094
22.600000,-0.000054
22.633333,-0.000013
22.666667,0.000019
22.700000,0.000038
22.733333,0.000043
22.766667,0.000041
22.800000,0.000038
22.833333,0.000037
22.866667,0.000040
22.900000,0.000045
22.933333,0.000047
22.966667,0.000040
23.000000,0.000025
23.033333,0.000002
23.066667,-0.000020
23.100000,-0.000033
23.133333,-0.000029
23.166667,-0.000006
23.200000,0.000031
23.233333,0.000072
23.266667,0.000104
23.300000,0.000113
23.333333,0.000092
23.366667,0.000043
23.400000,-0.000024
23.433333,-0.000093
23.466667,-0.000146
23.500000,-0.000171
23.533333,-0.000160
23.566667,-0.000120
23.600000,-0.000063
23.633333,-0.000004
23.666667,0.000040
23.700000,0.000061
23.733333,0.000060
23.766667,0.000043
23.800000,0.000022
23.833333,0.000008
23.866667,0.000007
23.900000,0.000019
23.933333,0.000040
23.966667,0.000059
24.000000,0.000068
24.033333,0.000064
24.066667,0.000049
24.100000,0.000027
24.133333,0.000005
24.166667,-0.000010
24.200000,-0.000018
24.233333,-0.000021
24.266667,-0.000022
24.300000,-0.000030
24.333333,-0.000045
24.366667,-0.000067
24.400000,-0.000088
24.433333,-0.000099
24.466667,-0.000095
24.500000,-0.000073
24.533333,-0.000036
24.566667,0.000006
24.600000,0.000045
24.633333,0.000069
24.666667,0.000073
24.700000,0.000059
24.733333,0.000035
24.766667,0.000010
24.800000,-0.000006
24.833333,-0.000005
24.866667,0.000013
24.900000,0.000043
24.933333,0.000074
24.966667,0.000096
25.000000,0.000099
25.033333,0.000082
25.066667,0.000048
25.100000,0.000007
25.133333,-0.000030
25.166667,-0.000057
25.200000,-0.000069
25.233333,-0.000069
25.266667,-0.000063
25.300000,-0.000060
25.333333,-0.000061
25.366667,-0.000065
25.400000,-0.000066
25.433333,-0.000056
25.466667,-0.000030
25.500000,0.000011
25.533333,0.000060
25.566667,0.000105
25.600000,0.000132
25.633333,0.000132
25.666667,0.000100
25.700000,0.000041
25.733333,-0.000029
25.766667,-0.000094
25.800000,-0.000138
25.833333,-0.000152
25.866667,-0.000133
25.900000,-0.000091
25.933333,-0.000037
25.966667,0.000011
26.000000,0.000044
26.033333,0.000055
26.066667,0.000049
26.100000,0.000033
26.133333,0.000019
26.166667,0.000014
26.200000,0.000020
26.233333,0.000035
26.266667,0.000052
26.300000,0.000063
26.333333,0.000060
26.366667,0.000041
26.400000,0.000012
26.433333,-0.000021
26.466667,-0.000046
26.500000,-0.000055
26.533333,-0.000045
26.566667,-0.000020
26.600000,0.000012
26.633333,0.000038
26.666667,0.000050
26.700000,0.000042
26.733333,0.000019
26.766667,-0.000009
26.800000,-0.000031
26.833333,-0.000039
26.866667,-0.000030
26.900000,-0.000009
26.933333,0.000015
26.966667,0.000030
27.000000,0.000029
27.033333,0.000012
27.066667,-0.000016
27.100000,-0.000043
27.133333,-0.000059
27.166667,-0.000058
27.200000,-0.000038
27.233333,-0.000006
27.266667,0.000027
27.300000,0.000050
27.333333,0.000054
27.366667,0.000039
27.400000,0.000012
27.433333,-0.000019
27.466667,-0.000043
27.500000,-0.000052
27.533333,-0.000045
27.566667,-0.000027
27.600000,-0.000006
27.633333,0.000008
27.666667,0.000009
27.700000,-0.000004
27.733333,-0.000024
27.766667,-0.000042
27.800000,-0.000048
27.833333,-0.000036
27.866667,-0.000008
27.900000,0.000030
27.933333,0.000068
27.966667,0.000094
28.000000,0.000102
28.033333,0.000090
28.066667,0.000063
28.100000,0.000030
28.133333,0.000002
28.166667,-0.000014
28.200000,-0.000015
28.233333,-0.000005
28.266667,0.000007
28.300000,0.000013
28.333333,0.000005
28.366667,-0.000016
28.400000,-0.000040
28.433333,-0.000057
28.466667,-0.000058
28.500000,-0.000038
28.533333,-0.000003
28.566667,0.000037
28.600000,0.000066
28.633333,0.000071
28.666667,0.000047
28.700000,-0.000002
28.733333,-0.000063
28.766667,-0.000116
28.800000,-0.000146
28.833333,-0.000143
28.866667,-0.000107
28.900000,-0.000048
28.933333,0.000019
28.966667,0.000076
29.000000,0.000108
29.033333,0.000111
29.066667,0.000088
29.100000,0.000049
29.133333,0.000008
29.166667,-0.000025
29.200000,-0.000042
29.233333,-0.000043
29.266667,-0.000033
29.300000,-0.000020
29.333333,-0.000011
29.366667,-0.000008
29.400000,-0.000010
29.433333,-0.000010
29.466667,-0.000001
29.500000,0.000020
29.533333,0.000053
29.566667,0.000090
29.600000,0.000121
29.633333,0.000133
29.666667,0.000121
29.700000,0.000084
29.733333,0.000030
29.766667,-0.000028
29.800000,-0.000076
29.833333,-0.000105
29.866667,-0.000112
29.900000,-0.000099
29.933333,-0.000075
29.966667,-0.000051
30.000000,-0.000035
30.033333,-0.000032
30.066667,-0.000037
30.100000,-0.000043
30.133333,-0.000042
30.166667,-0.000028
30.200000,-0.000003
30.233333,0.000029
30.266667,0.000057
30.300000,0.000071
30.333333,0.000067
30.366667,0.000046
30.400000,0.000016
30.433333,-0.000010
30.466667,-0.000023
30.500000,-0.000017
30.533333,0.000004
30.566667,0.000031
30.600000,0.000051
30.633333,0.000053
30.666667,0.000034
30.700000,-0.000002
30.733333,-0.000042
30.766667,-0.000073
30.800000,-0.000082
30.833333,-0.000067
30.866667,-0.000031
30.900000,0.000016
30.933333,0.000058
30.966667,0.000084
31.000000,0.000084
31.033333,0.000058
31.066667,0.000016
31.100000,-0.000028
31.133333,-0.000061
31.166667,-0.000074
31.200000,-0.000064
31.233333,-0.000035
31.266667,0.000002
31.300000,0.000038
31.333333,0.000062
31.366667,0.000070
31.400000,0.000064
31.433333,0.000047
31.466667,0.000026
31.500000,0.000005
31.533333,-0.000013
31.566667,-0.000029
31.600000,-0.000046
31.633333,-0.000065
31.666667,-0.000086
31.700000,-0.000105
31.733333,-0.000115
31.766667,-0.000108
31.800000,-0.000078
31.833333,-0.000026
31.866667,0.000042
31.900000,0.000112
31.933333,0.000165
31.966667,0.000187
32.000000,0.000170
32.033333,0.000117
32.066667,0.000042
32.100000,-0.000036
32.133333,-0.000098
32.166667,-0.000131
32.200000,-0.000129
32.233333,-0.000096
32.266667,-0.000046
32.300000,0.000006
32.333333,0.000046
32.366667,0.000064
32.400000,0.000063
32.433333,0.000048
32.466667,0.000028
32.500000,0.000013
32.533333,0.000005
32.566667,0.000005
32.600000,0.000007
32.633333,0.000004
32.666667,-0.000007
32.700000,-0.000027
32.733333,-0.000050
32.766667,-0.000067
32.800000,-0.000071
32.833333,-0.000058
32.866667,-0.000029
32.900000,0.000008
32.933333,0.000042
32.966667,0.000061
33.000000,0.000060
33.033333,0.000038
33.066667,0.000005
33.100000,-0.000026
33.133333,-0.000042
33.166667,-0.000036
33.200000,-0.000010
33.233333,0.000025
33.266667,0.000057
33.300000,0.000069
33.333333,0.000054
33.366667,0.000016
33.400000,-0.000033
33.433333,-0.000074
33.466667,-0.000090
33.500000,-0.000075
33.533333,-0.000033
33.566667,0.000022
33.600000,0.000073
33.633333,0.000103
33.666667,0.000103
33.700000,0.000076
33.733333,0.000030
33.766667,-0.000019
33.800000,-0.000057
33.833333,-0.000075
33.866667,-0.000071
33.900000,-0.000050
33.933333,-0.000023
33.966667,-0.000002
34.000000,0.000004
34.033333,-0.000007
34.066667,-0.000029
34.100000,-0.000051
34.133333,-0.000063
34.166667,-0.000058
34.200000,-0.000033
34.233333,0.000005
34.266667,0.000049
34.300000,0.000084
34.333333,0.000103
34.366667,0.000101
34.400000,0.000082
34.433333,0.000053
34.466667,0.000022
34.500000,-0.000002
34.533333,-0.000016
34.566667,-0.000019
34.600000,-0.000016
34.633333,-0.000014
