Time_Sec,Amplitude
0.000000,0.000033
0.033333,-0.000044
0.066667,-0.000101
0.100000,-0.000124
0.133333,-0.000109
0.166667,-0.000064
0.200000,-0.000006
0.233333,0.000043
0.266667,0.000068
0.300000,0.000059
0.333333,0.000020
0.366667,-0.000039
0.400000,-0.000100
0.433333,-0.000148
0.466667,-0.000175
0.500000,-0.000176
0.533333,-0.000153
0.566667,-0.000114
0.600000,-0.000071
0.633333,-0.000032
0.666667,-0.000007
0.700000,0.000005
0.733333,0.000007
0.766667,0.000010
0.800000,0.000021
0.833333,0.000046
0.866667,0.000082
0.900000,0.000123
0.933333,0.000156
0.966667,0.000170
1.000000,0.000156
1.033333,0.000115
1.066667,0.000058
1.100000,-0.000003
1.133333,-0.000050
1.166667,-0.000073
1.200000,-0.000070
1.233333,-0.000046
1.266667,-0.000014
1.300000,0.000011
1.333333,0.000021
1.366667,0.000012
1.400000,-0.000012
1.433333,-0.000039
1.466667,-0.000061
1.500000,-0.000068
1.533333,-0.000060
1.566667,-0.000039
1.600000,-0.000014
1.633333,0.000007
1.666667,0.000019
1.700000,0.000025
1.733333,0.000030
1.766667,0.000042
1.800000,0.000066
1.833333,0.000104
1.866667,0.000149
1.900000,0.000190
1.933333,0.000213
1.966667,0.000203
2.000000,0.000153
2.033333,0.000064
2.066667,-0.000050
2.100000,-0.000172
2.133333,-0.000277
2.166667,-0.000347
2.200000,-0.000367
2.233333,-0.000337
2.266667,-0.000265
2.300000,-0.000168
2.333333,-0.000067
2.366667,0.000022
2.400000,0.000087
2.433333,0.000129
2.466667,0.000150
2.500000,0.000156
2.533333,0.000150
2.566667,0.000136
2.600000,0.000113
2.633333,0.000079
2.666667,0.000036
2.700000,-0.000009
2.733333,-0.000047
2.766667,-0.000066
2.800000,-0.000060
2.833333,-0.000027
2.866667,0.000024
2.900000,0.000079
2.933333,0.000123
2.966667,0.000140
3.000000,0.000123
3.033333,0.000076
3.066667,0.000011
3.100000,-0.000053
3.133333,-0.000101
3.166667,-0.000121
3.200000,-0.000113
3.233333,-0.000085
3.266667,-0.000050
3.300000,-0.000022
3.333333,-0.000011
3.366667,-0.000019
3.400000,-0.000039
3.433333,-0.000060
3.466667,-0.000070
3.500000,-0.000059
3.533333,-0.000027
3.566667,0.000021
3.600000,0.000073
3.633333,0.000116
3.666667,0.000140
3.700000,0.000142
3.733333,0.000125
3.766667,0.000099
3.800000,0.000075
3.833333,0.000061
3.866667,0.000057
3.900000,0.000057
3.933333,0.000049
3.966667,0.000021
4.000000,-0.000031
4.033333,-0.000105
4.066667,-0.000184
4.100000,-0.000247
4.133333,-0.000275
4.166667,-0.000255
4.200000,-0.000190
4.233333,-0.000094
4.266667,0.000009
4.300000,0.000092
4.333333,0.000139
4.366667,0.000142
4.400000,0.000112
4.433333,0.000064
4.466667,0.000019
4.500000,-0.000008
4.533333,-0.000011
4.566667,0.000008
4.600000,0.000037
4.633333,0.000064
4.666667,0.000079
4.700000,0.000077
4.733333,0.000062
4.766667,0.000040
4.800000,0.000020
4.833333,0.000007
4.866667,0.000002
4.900000,0.000002
4.933333,0.000000
4.966667,-0.000009
5.000000,-0.000031
5.033333,-0.000064
5.066667,-0.000101
5.100000,-0.000131
5.133333,-0.000144
5.166667,-0.000131
5.200000,-0.000091
5.233333,-0.000030
5.266667,0.000039
5.300000,0.000100
5.333333,0.000143
5.366667,0.000158
5.400000,0.000148
5.433333,0.000119
5.466667,0.000083
5.500000,0.000049
5.533333,0.000023
5.566667,0.000007
5.600000,-0.000004
5.633333,-0.000015
5.666667,-0.000032
5.700000,-0.000054
5.733333,-0.000078
5.766667,-0.000094
5.800000,-0.000095
5.833333,-0.000079
5.866667,-0.000046
5.900000,-0.000005
5.933333,0.000034
5.966667,0.000058
6.000000,0.000060
6.033333,0.000039
6.066667,0.000002
6.100000,-0.000041
6.133333,-0.000079
6.166667,-0.000100
6.200000,-0.000101
6.233333,-0.000081
6.266667,-0.000047
6.300000,-0.000008
6.333333,0.000025
6.366667,0.000048
6.400000,0.000060
6.433333,0.000064
6.466667,0.000065
6.500000,0.000070
6.533333,0.000078
6.566667,0.000088
6.600000,0.000093
6.633333,0.000086
6.666667,0.000063
6.700000,0.000025
6.733333,-0.000020
6.766667,-0.000062
6.800000,-0.000088
6.833333,-0.000093
6.866667,-0.000074
6.900000,-0.000041
6.933333,-0.000005
6.966667,0.000019
7.000000,0.000024
7.033333,0.000007
7.066667,-0.000024
7.100000,-0.000054
7.133333,-0.000072
7.166667,-0.000069
7.200000,-0.000045
7.233333,-0.000008
7.266667,0.000030
7.300000,0.000058
7.333333,0.000066
7.366667,0.000055
7.400000,0.000032
7.433333,0.000005
7.466667,-0.000013
7.500000,-0.000017
7.533333,-0.000006
7.566667,0.000016
7.600000,0.000039
7.633333,0.000053
7.666667,0.000051
7.700000,0.000033
7.733333,0.000005
7.766667,-0.000026
7.800000,-0.000047
7.833333,-0.000052
7.866667,-0.000042
7.900000,-0.000022
7.933333,-0.000002
7.966667,0.000008
8.000000,0.000003
8.033333,-0.000017
8.066667,-0.000041
8.100000,-0.000059
8.133333,-0.000060
8.166667,-0.000042
8.200000,-0.000006
8.233333,0.000038
8.266667,0.000076
8.300000,0.000096
8.333333,0.000093
8.366667,0.000066
8.400000,0.000026
8.433333,-0.000016
8.466667,-0.000048
8.500000,-0.000061
8.533333,-0.000055
8.566667,-0.000035
8.600000,-0.000009
8.633333,0.000011
8.666667,0.000018
8.700000,0.000009
8.733333,-0.000008
8.766667,-0.000025
8.800000,-0.000032
8.833333,-0.000024
8.866667,-0.000002
8.900000,0.000027
8.933333,0.000053
8.966667,0.000066
9.000000,0.000061
9.033333,0.000040
9.066667,0.000010
9.100000,-0.000017
9.133333,-0.000032
9.166667,-0.000030
9.200000,-0.000012
9.233333,0.000014
9.266667,0.000034
9.300000,0.000040
9.333333,0.000024
9.366667,-0.000008
9.400000,-0.000048
9.433333,-0.000080
9.466667,-0.000092
9.500000,-0.000079
9.533333,-0.000044
9.566667,0.000002
9.600000,0.000045
9.633333,0.000071
9.666667,0.000072
9.700000,0.000049
9.733333,0.000011
9.766667,-0.000028
9.800000,-0.000056
9.833333,-0.000062
9.866667,-0.000047
9.900000,-0.000016
9.933333,0.000019
9.966667,0.000045
10.000000,0.000052
10.033333,0.000039
10.066667,0.000011
10.100000,-0.000020
10.133333,-0.000044
10.166667,-0.000052
10.200000,-0.000042
10.233333,-0.000016
10.266667,0.000015
10.300000,0.000041
10.333333,0.000054
10.366667,0.000051
10.400000,0.000034
10.433333,0.000012
10.466667,-0.000006
10.500000,-0.000013
10.533333,-0.000009
10.566667,0.000005
10.600000,0.000020
10.633333,0.000029
10.666667,0.000027
10.700000,0.000015
10.733333,-0.000001
10.766667,-0.000014
10.800000,-0.000018
10.833333,-0.000009
10.866667,0.000008
10.900000,0.000025
10.933333,0.000034
10.966667,0.000025
11.000000,-0.000003
11.033333,-0.000044
11.066667,-0.000088
11.100000,-0.000118
11.133333,-0.000126
11.166667,-0.000105
11.200000,-0.000060
11.233333,-0.000000
11.266667,0.000057
11.300000,0.000096
11.333333,0.000109
11.366667,0.000093
11.400000,0.000058
11.433333,0.000015
11.466667,-0.000020
11.500000,-0.000039
11.533333,-0.000037
11.566667,-0.000018
11.600000,0.000008
11.633333,0.000029
11.666667,0.000038
11.700000,0.000032
11.733333,0.000015
11.766667,-0.000004
11.800000,-0.000015
11.833333,-0.000012
11.866667,0.000005
11.900000,0.000030
11.933333,0.000053
11.966667,0.000062
12.000000,0.000052
12.033333,0.000022
12.066667,-0.000019
12.100000,-0.000059
12.133333,-0.000085
12.166667,-0.000089
12.200000,-0.000072
12.233333,-0.000039
12.266667,-0.000002
12.300000,0.000025
12.333333,0.000034
12.366667,0.000022
12.400000,-0.000004
12.433333,-0.000035
12.466667,-0.000058
12.500000,-0.000065
12.533333,-0.000052
12.566667,-0.000024
12.600000,0.000008
12.633333,0.000034
12.666667,0.000045
12.700000,0.000040
12.733333,0.000024
12.766667,0.000006
12.800000,-0.000003
12.833333,0.000001
12.866667,0.000018
12.900000,0.000042
12.933333,0.000063
12.966667,0.000070
13.000000,0.000057
13.033333,0.000029
13.066667,-0.000007
13.100000,-0.000036
13.133333,-0.000047
13.166667,-0.000034
13.200000,0.000001
13.233333,0.000046
13.266667,0.000087
13.300000,0.000107
13.333333,0.000096
13.366667,0.000055
13.400000,-0.000008
13.433333,-0.000074
13.466667,-0.000126
13.500000,-0.000151
13.533333,-0.000143
13.566667,-0.000108
13.600000,-0.000058
13.633333,-0.000010
13.666667,0.000022
13.700000,0.000032
13.733333,0.000022
13.766667,0.000001
13.800000,-0.000019
13.833333,-0.000030
13.866667,-0.000027
13.900000,-0.000011
13.933333,0.000008
13.966667,0.000025
14.000000,0.000031
14.033333,0.000028
14.066667,0.000020
14.100000,0.000013
14.133333,0.000014
14.166667,0.000026
14.200000,0.000045
14.233333,0.000065
14.266667,0.000077
14.300000,0.000072
14.333333,0.000049
14.366667,0.000010
14.400000,-0.000034
14.433333,-0.000072
14.466667,-0.000091
14.500000,-0.000086
14.533333,-0.000058
14.566667,-0.000014
14.600000,0.000033
14.633333,0.000069
14.666667,0.000083
14.700000,0.000075
14.733333,0.000050
14.766667,0.000018
14.800000,-0.000008
14.833333,-0.000023
14.866667,-0.000024
14.900000,-0.000015
14.933333,-0.000005
14.966667,-0.000002
15.000000,-0.000011
15.033333,-0.000031
15.066667,-0.000054
15.100000,-0.000070
15.133333,-0.000071
15.166667,-0.000051
15.200000,-0.000016
15.233333,0.000026
15.266667,0.000061
15.300000,0.000077
15.333333,0.000066
15.366667,0.000032
15.400000,-0.000018
15.433333,-0.000068
15.466667,-0.000104
15.500000,-0.000116
15.533333,-0.000102
15.566667,-0.000065
15.600000,-0.000019
15.633333,0.000024
15.666667,0.000054
15.700000,0.000068
15.733333,0.000069
15.766667,0.000065
15.800000,0.000064
15.833333,0.000070
15.866667,0.000083
15.900000,0.000097
15.933333,0.000102
15.966667,0.000091
16.000000,0.000060
16.033333,0.000012
16.066667,-0.000042
16.100000,-0.000087
16.133333,-0.000114
16.166667,-0.000114
16.200000,-0.000089
16.233333,-0.000049
16.266667,-0.000005
16.300000,0.000026
16.333333,0.000036
16.366667,0.000022
16.400000,-0.000009
16.433333,-0.000043
16.466667,-0.000067
16.500000,-0.000071
16.533333,-0.000053
16.566667,-0.000019
16.600000,0.000020
16.633333,0.000052
16.666667,0.000066
16.700000,0.000059
16.733333,0.000037
16.766667,0.000008
16.800000,-0.000015
16.833333,-0.000025
16.866667,-0.000018
16.900000,0.000003
16.933333,0.000028
16.966667,0.000046
17.000000,0.000048
17.033333,0.000031
17.066667,-0.000002
17.100000,-0.000039
17.133333,-0.000069
17.166667,-0.000084
17.200000,-0.000077
17.233333,-0.000052
17.266667,-0.000017
17.300000,0.000017
17.333333,0.000040
17.366667,0.000049
17.400000,0.000046
17.433333,0.000036
17.466667,0.000029
17.500000,0.000029
17.533333,0.000038
17.566667,0.000052
17.600000,0.000062
17.633333,0.000059
17.666667,0.000040
17.700000,0.000004
17.733333,-0.000038
17.766667,-0.000077
17.800000,-0.000099
17.833333,-0.000099
17.866667,-0.000074
17.900000,-0.000034
17.933333,0.000011
17.966667,0.000047
18.000000,0.000062
18.033333,0.000055
18.066667,0.000031
18.100000,0.000000
18.133333,-0.000025
18.166667,-0.000036
18.200000,-0.000028
18.233333,-0.000008
18.266667,0.000016
18.300000,0.000031
18.333333,0.000027
18.366667,0.000004
18.400000,-0.000033
18.433333,-0.000071
18.466667,-0.000096
18.500000,-0.000099
18.533333,-0.000075
18.566667,-0.000031
18.600000,0.000024
18.633333,0.000074
18.666667,0.000106
18.700000,0.000117
18.733333,0.000107
18.766667,0.000085
18.800000,0.000061
18.833333,0.000043
18.866667,0.000036
18.900000,0.000037
18.933333,0.000040
18.966667,0.000033
19.000000,0.000012
19.033333,-0.000025
19.066667,-0.000072
19.100000,-0.000118
19.133333,-0.000151
19.166667,-0.000164
19.200000,-0.000152
19.233333,-0.000119
19.266667,-0.000074
19.300000,-0.000028
19.333333,0.000009
19.366667,0.000032
19.400000,0.000045
19.433333,0.000051
19.466667,0.000057
19.500000,0.000067
19.533333,0.000081
19.566667,0.000095
19.600000,0.000102
19.633333,0.000095
19.666667,0.000073
19.700000,0.000038
19.733333,-0.000002
19.766667,-0.000036
19.800000,-0.000055
19.833333,-0.000054
19.866667,-0.000035
19.900000,-0.000004
19.933333,0.000027
19.966667,0.000045
20.000000,0.000043
20.033333,0.000021
20.066667,-0.000012
20.100000,-0.000045
20.133333,-0.000066
20.166667,-0.000067
20.200000,-0.000048
20.233333,-0.000016
20.266667,0.000018
20.300000,0.000040
20.333333,0.000044
20.366667,0.000027
20.400000,-0.000004
20.433333,-0.000037
20.466667,-0.000061
20.500000,-0.000068
20.533333,-0.000056
20.566667,-0.000030
20.600000,0.000000
20.633333,0.000024
20.666667,0.000033
20.700000,0.000027
20.733333,0.000009
20.766667,-0.000010
20.800000,-0.000021
20.833333,-0.000020
20.866667,-0.000005
20.900000,0.000017
20.933333,0.000037
20.966667,0.000046
21.000000,0.000039
21.033333,0.000017
21.066667,-0.000011
21.100000,-0.000034
21.133333,-0.000042
21.166667,-0.000029
21.200000,0.000001
21.233333,0.000039
21.266667,0.000072
21.300000,0.000088
21.333333,0.000080
21.366667,0.000049
21.400000,0.000006
21.433333,-0.000037
21.466667,-0.000066
21.500000,-0.000072
21.533333,-0.000057
21.566667,-0.000026
21.600000,0.000008
21.633333,0.000032
21.666667,0.000036
21.700000,0.000021
21.733333,-0.000009
21.766667,-0.000040
21.800000,-0.000061
21.833333,-0.000063
21.866667,-0.000045
21.900000,-0.000012
21.933333,0.000024
21.966667,0.000050
22.000000,0.000057
22.033333,0.000044
22.066667,0.000017
22.100000,-0.000014
22.133333,-0.000035
22.166667,-0.000040
22.200000,-0.000026
22.233333,-0.000000
22.266667,0.000028
22.300000,0.000047
22.333333,0.000048
22.366667,0.000030
22.400000,0.000000
22.433333,-0.000030
22.466667,-0.000049
22.500000,-0.000050
22.533333,-0.000031
22.566667,0.000002
22.600000,0.000038
22.633333,0.000065
22.666667,0.000075
22.700000,0.000065
22.733333,0.000041
22.766667,0.000012
22.800000,-0.000012
22.833333,-0.000025
22.866667,-0.000024
22.900000,-0.000015
22.933333,-0.000007
22.966667,-0.000008
23.000000,-0.000023
23.033333,-0.000051
23.066667,-0.000084
23.100000,-0.000109
23.133333,-0.000116
23.166667,-0.000100
23.200000,-0.000062
23.233333,-0.000010
23.266667,0.000043
23.300000,0.000084
23.333333,0.000104
23.366667,0.000100
23.400000,0.000078
23.433333,0.000046
23.466667,0.000017
23.500000,-0.000001
23.533333,-0.000005
23.566667,0.000003
23.600000,0.000014
23.633333,0.000022
23.666667,0.000021
23.700000,0.000011
23.733333,-0.000002
23.766667,-0.000012
23.800000,-0.000013
23.833333,-0.000003
23.866667,0.000014
23.900000,0.000027
23.933333,0.000029
23.966667,0.000012
24.000000,-0.000025
24.033333,-0.000072
24.066667,-0.000112
24.100000,-0.000129
24.133333,-0.000109
24.166667,-0.000049
24.200000,0.000039
24.233333,0.000138
24.266667,0.000222
24.300000,0.000268
24.333333,0.000260
24.366667,0.000197
24.400000,0.000091
24.433333,-0.000035
24.466667,-0.000158
24.500000,-0.000253
24.533333,-0.000309
24.566667,-0.000326
24.600000,-0.000311
24.633333,-0.000278
24.666667,-0.000237
24.700000,-0.000191
24.733333,-0.000134
24.766667,-0.000057
24.800000,0.000046
24.833333,0.000174
24.866667,0.000318
24.900000,0.000456
24.933333,0.000564
24.966667,0.000610
25.000000,0.000572
25.033333,0.000444
25.066667,0.000238
25.100000,-0.000011
25.133333,-0.000252
25.166667,-0.000436
25.200000,-0.000526
25.233333,-0.000512
25.266667,-0.000411
25.300000,-0.000257
25.333333,-0.000093
25.366667,0.000045
25.400000,0.000133
25.433333,0.000163
25.466667,0.000138
25.500000,0.000069
25.533333,-0.000027
25.566667,-0.000131
25.600000,-0.000229
25.633333,-0.000307
25.666667,-0.000354
25.700000,-0.000357
25.733333,-0.000305
25.766667,-0.000196
25.800000,-0.000037
25.833333,0.000155
25.866667,0.000346
25.900000,0.000501
25.933333,0.000588
25.966667,0.000586
26.000000,0.000497
26.033333,0.000342
26.066667,0.000155
26.100000,-0.000025
26.133333,-0.000163
26.166667,-0.000237
26.200000,-0.000237
26.233333,-0.000172
26.266667,-0.000065
26.300000,0.000052
26.333333,0.000146
26.366667,0.000192
26.400000,0.000178
26.433333,0.000113
26.466667,0.000015
26.500000,-0.000090
26.533333,-0.000178
26.566667,-0.000233
26.600000,-0.000251
26.633333,-0.000239
26.666667,-0.000211
26.700000,-0.000179
26.733333,-0.000152
26.766667,-0.000131
26.800000,-0.000111
26.833333,-0.000089
26.866667,-0.000060
26.900000,-0.000025
26.933333,0.000009
26.966667,0.000036
27.000000,0.000049
27.033333,0.000048
27.066667,0.000039
27.100000,0.000032
27.133333,0.000037
27.166667,0.000059
27.200000,0.000097
27.233333,0.000140
27.266667,0.000177
27.300000,0.000193
27.333333,0.000180
27.366667,0.000141
27.400000,0.000084
27.433333,0.000024
27.466667,-0.000025
27.500000,-0.000051
27.533333,-0.000051
27.566667,-0.000030
27.600000,-0.000001
27.633333,0.000021
27.666667,0.000026
27.700000,0.000008
27.733333,-0.000025
27.766667,-0.000060
27.800000,-0.000084
27.833333,-0.000086
27.866667,-0.000065
27.900000,-0.000026
27.933333,0.000016
27.966667,0.000047
28.000000,0.000057
28.033333,0.000041
28.066667,0.000005
28.100000,-0.000041
28.133333,-0.000081
28.166667,-0.000104
28.200000,-0.000104
28.233333,-0.000083
28.266667,-0.000048
28.300000,-0.000012
28.333333,0.000014
28.366667,0.000024
28.400000,0.000020
28.433333,0.000008
28.466667,-0.000001
28.500000,-0.000001
28.533333,0.000011
28.566667,0.000031
28.600000,0.000050
28.633333,0.000060
28.666667,0.000051
28.700000,0.000024
28.733333,-0.000013
28.766667,-0.000050
28.800000,-0.000071
28.833333,-0.000067
28.866667,-0.000037
28.900000,0.000013
28.933333,0.000069
28.966667,0.000114
29.000000,0.000136
29.033333,0.000129
29.066667,0.000097
29.100000,0.000051
29.133333,0.000006
29.166667,-0.000029
29.200000,-0.000047
29.233333,-0.000051
29.266667,-0.000050
29.300000,-0.000052
29.333333,-0.000065
29.366667,-0.000087
29.400000,-0.000108
29.433333,-0.000118
29.466667,-0.000106
29.500000,-0.000069
29.533333,-0.000010
29.566667,0.000060
29.600000,0.000123
29.633333,0.000165
29.666667,0.000175
29.700000,0.000151
29.733333,0.000100
29.766667,0.000033
29.800000,-0.000032
29.833333,-0.000082
29.866667,-0.000108
29.900000,-0.000111
29.933333,-0.000095
29.966667,-0.000073
30.000000,-0.000053
30.033333,-0.000041
30.066667,-0.000034
30.100000,-0.000029
30.133333,-0.000019
30.166667,0.000001
30.200000,0.000028
30.233333,0.000059
30.266667,0.000084
30.300000,0.000093
30.333333,0.000081
30.366667,0.000048
30.400000,0.000004
30.433333,-0.000040
30.466667,-0.000070
30.500000,-0.000078
30.533333,-0.000064
30.566667,-0.000032
30.600000,0.000006
30.633333,0.000036
30.666667,0.000051
30.700000,0.000049
30.733333,0.000033
30.766667,0.000015
30.800000,0.000002
30.833333,0.000003
30.866667,0.000017
30.900000,0.000039
30.933333,0.000059
30.966667,0.000067
31.000000,0.000055
31.033333,0.000024
31.066667,-0.000018
31.100000,-0.000060
31.133333,-0.000091
31.166667,-0.000103
31.200000,-0.000094
31.233333,-0.000068
31.266667,-0.000032
31.300000,0.000001
31.333333,0.000022
31.366667,0.000028
31.400000,0.000021
31.433333,0.000009
31.466667,-0.000001
31.500000,-0.000001
31.533333,0.000010
31.566667,0.000028
31.600000,0.000045
31.633333,0.000052
31.666667,0.000042
31.700000,0.000017
31.733333,-0.000016
31.766667,-0.000046
31.800000,-0.000063
31.833333,-0.000061
31.866667,-0.000041
31.900000,-0.000009
31.933333,0.000023
31.966667,0.000044
32.000000,0.000046
32.033333,0.000029
32.066667,-0.000001
32.100000,-0.000033
32.133333,-0.000054
32.166667,-0.000058
32.200000,-0.000041
32.233333,-0.000011
32.266667,0.000025
32.300000,0.000053
32.333333,0.000064
32.366667,0.000058
32.400000,0.000040
32.433333,0.000018
32.466667,0.000005
32.500000,0.000005
32.533333,0.000021
32.566667,0.000044
32.600000,0.000064
32.633333,0.000069
32.666667,0.000053
32.700000,0.000016
32.733333,-0.000033
32.766667,-0.000081
32.800000,-0.000114
32.833333,-0.000124
32.866667,-0.000107
32.900000,-0.000071
32.933333,-0.000026
32.966667,0.000012
33.000000,0.000034
33.033333,0.000035
33.066667,0.000019
33.100000,-0.000004
33.133333,-0.000023
33.166667,-0.000033
33.200000,-0.000028
33.233333,-0.000014
33.266667,0.000005
33.300000,0.000018
33.333333,0.000023
33.366667,0.000017
33.400000,0.000008
33.433333,0.000002
33.466667,0.000006
33.500000,0.000023
33.533333,0.000048
33.566667,0.000073
33.600000,0.000089
33.633333,0.000087
33.666667,0.000063
33.700000,0.000023
33.733333,-0.000022
33.766667,-0.000060
33.800000,-0.000080
33.833333,-0.000076
33.866667,-0.000051
33.900000,-0.000014
33.933333,0.000024
33.966667,0.000048
34.000000,0.000053
34.033333,0.000035
34.066667,0.000004
34.100000,-0.000030
34.133333,-0.000055
34.166667,-0.000063
34.200000,-0.000050
34.233333,-0.000023
34.266667,0.000008
34.300000,0.000031
34.333333,0.000035
34.366667,0.000021
34.400000,-0.000005
34.433333,-0.000031
34.466667,-0.000048
34.500000,-0.000046
34.533333,-0.000027
34.566667,0.000005
34.600000,0.000038
34.633333,0.000060
34.666667,0.000063
