Time_Sec,Amplitude
0.000000,0.081723
0.033333,0.903495
0.066667,1.433190
0.100000,1.471526
0.133333,0.977897
0.166667,0.091409
0.200000,-0.906529
0.233333,-1.679445
0.266667,-1.943609
0.300000,-1.559941
0.333333,-0.581555
0.366667,0.756474
0.400000,2.102991
0.433333,3.094643
0.466667,3.465781
0.500000,3.126704
0.533333,2.182849
0.566667,0.890341
0.600000,-0.432915
0.633333,-1.505988
0.666667,-2.157728
0.700000,-2.352034
0.733333,-2.166113
0.766667,-1.740032
0.800000,-1.221799
0.833333,-0.727004
0.866667,-0.321572
0.900000,-0.025621
0.933333,0.170435
0.966667,0.287773
1.000000,0.345851
1.033333,0.356412
1.066667,0.324747
1.100000,0.255927
1.133333,0.161065
1.166667,0.058474
1.200000,-0.031056
1.233333,-0.091017
1.266667,-0.113661
1.300000,-0.100486
1.333333,-0.059328
1.366667,0.000070
1.400000,0.069400
1.433333,0.142416
1.466667,0.213790
1.500000,0.278190
1.533333,0.329815
1.566667,0.361349
1.600000,0.362995
1.633333,0.323867
1.666667,0.236559
1.700000,0.102987
1.733333,-0.061267
1.766667,-0.226662
1.800000,-0.355598
1.833333,-0.414186
1.866667,-0.385167
1.900000,-0.275099
1.933333,-0.112065
1.966667,0.064487
2.000000,0.216717
2.033333,0.318703
2.066667,0.360314
2.100000,0.344661
2.133333,0.283071
2.166667,0.191561
2.200000,0.088831
2.233333,-0.006614
2.266667,-0.080569
2.300000,-0.126170
2.333333,-0.144358
2.366667,-0.142429
2.400000,-0.131858
2.433333,-0.125878
2.466667,-0.137002
2.500000,-0.174253
2.533333,-0.239410
2.566667,-0.322742
2.600000,-0.401403
2.633333,-0.444088
2.666667,-0.422081
2.700000,-0.322499
2.733333,-0.157853
2.766667,0.033229
2.800000,0.196825
2.833333,0.283791
2.866667,0.270889
2.900000,0.173177
2.933333,0.042574
2.966667,-0.046458
3.000000,-0.020570
3.033333,0.164268
3.066667,0.498046
3.100000,0.906333
3.133333,1.263064
3.166667,1.427471
3.200000,1.294609
3.233333,0.838390
3.266667,0.125268
3.300000,-0.708238
3.333333,-1.499686
3.366667,-2.102548
3.400000,-2.410483
3.433333,-2.364284
3.466667,-1.951073
3.500000,-1.204977
3.533333,-0.211545
3.566667,0.890189
3.600000,1.918587
3.633333,2.680389
3.666667,3.018047
3.700000,2.857640
3.733333,2.236289
3.766667,1.293591
3.800000,0.226972
3.833333,-0.770196
3.866667,-1.559073
3.900000,-2.074163
3.933333,-2.310749
3.966667,-2.297660
4.000000,-2.074103
4.033333,-1.680034
4.066667,-1.158192
4.100000,-0.559431
4.133333,0.056683
4.166667,0.628425
4.200000,1.101632
4.233333,1.436354
4.266667,1.607613
4.300000,1.602391
4.333333,1.417956
4.366667,1.066467
4.400000,0.586468
4.433333,0.053888
4.466667,-0.420156
4.500000,-0.713216
4.533333,-0.733339
4.566667,-0.463233
4.600000,0.014639
4.633333,0.530302
4.666667,0.879897
4.700000,0.902603
4.733333,0.545814
4.766667,-0.113268
4.800000,-0.897635
4.833333,-1.593523
4.866667,-2.017092
4.900000,-2.062119
4.933333,-1.719685
4.966667,-1.071407
5.000000,-0.262412
5.033333,0.538998
5.066667,1.186463
5.100000,1.592353
5.133333,1.740931
5.166667,1.671578
5.200000,1.443912
5.233333,1.108517
5.266667,0.700225
5.300000,0.251461
5.333333,-0.191691
5.366667,-0.567716
5.400000,-0.816367
5.433333,-0.903472
5.466667,-0.837414
5.500000,-0.666676
5.533333,-0.459986
5.566667,-0.279980
5.600000,-0.162774
5.633333,-0.111016
5.666667,-0.100936
5.700000,-0.098027
5.733333,-0.073296
5.766667,-0.013793
5.800000,0.074382
5.833333,0.169403
5.866667,0.241982
5.900000,0.266811
5.933333,0.233277
5.966667,0.150478
6.000000,0.044048
6.033333,-0.053449
6.066667,-0.114290
6.100000,-0.124825
6.133333,-0.088530
6.166667,-0.022050
6.200000,0.052935
6.233333,0.117533
6.266667,0.160170
6.300000,0.177370
6.333333,0.171611
6.366667,0.147750
6.400000,0.110249
6.433333,0.062766
6.466667,0.009488
6.500000,-0.043836
6.533333,-0.090233
6.566667,-0.122872
6.600000,-0.136822
6.633333,-0.130712
6.666667,-0.107373
6.700000,-0.072879
6.733333,-0.034656
6.766667,0.000118
6.800000,0.025554
6.833333,0.037929
6.866667,0.036127
6.900000,0.021138
6.933333,-0.004829
6.966667,-0.038429
7.000000,-0.074344
7.033333,-0.104722
7.066667,-0.119923
7.100000,-0.110748
7.133333,-0.071830
7.166667,-0.005055
7.200000,0.079007
7.233333,0.163082
7.266667,0.227781
7.300000,0.256769
7.333333,0.241284
7.366667,0.183318
7.400000,0.095958
7.433333,-0.000660
7.466667,-0.086873
7.500000,-0.151096
7.533333,-0.193992
7.566667,-0.227245
7.600000,-0.266645
7.633333,-0.321583
7.666667,-0.385572
7.700000,-0.433081
7.733333,-0.425278
7.766667,-0.323392
7.800000,-0.105478
7.833333,0.219396
7.866667,0.605907
7.900000,0.980149
7.933333,1.258607
7.966667,1.371407
8.000000,1.280901
8.033333,0.988883
8.066667,0.531364
8.100000,-0.033390
8.133333,-0.635028
8.166667,-1.195824
8.200000,-1.634600
8.233333,-1.876949
8.266667,-1.872699
8.300000,-1.613648
8.333333,-1.141918
8.366667,-0.542943
8.400000,0.076260
8.433333,0.615899
8.466667,1.007735
8.500000,1.225538
8.533333,1.279545
8.566667,1.200119
8.600000,1.019611
8.633333,0.762074
8.666667,0.446709
8.700000,0.101567
8.733333,-0.224810
8.766667,-0.466178
8.800000,-0.559068
8.833333,-0.472860
8.866667,-0.233707
8.900000,0.073957
8.933333,0.335179
8.966667,0.451500
9.000000,0.383252
9.033333,0.164162
9.066667,-0.118258
9.100000,-0.363747
9.133333,-0.500045
9.166667,-0.505775
9.200000,-0.408953
9.233333,-0.266113
9.266667,-0.134294
9.300000,-0.048770
9.333333,-0.014260
9.366667,-0.010535
9.400000,-0.008017
9.433333,0.014517
9.466667,0.058803
9.500000,0.107775
9.533333,0.136480
9.566667,0.126259
9.600000,0.074734
9.633333,-0.002429
9.666667,-0.077957
9.700000,-0.124152
9.733333,-0.123512
9.766667,-0.074467
9.800000,0.009011
9.833333,0.102709
9.866667,0.180399
9.900000,0.222587
9.933333,0.222479
9.966667,0.186575
10.000000,0.130221
10.033333,0.070906
10.066667,0.022170
10.100000,-0.009992
10.133333,-0.027184
10.166667,-0.035523
10.200000,-0.041761
10.233333,-0.051101
10.266667,-0.066878
10.300000,-0.090572
10.333333,-0.121332
10.366667,-0.155454
10.400000,-0.186381
10.433333,-0.205355
10.466667,-0.203044
10.500000,-0.172232
10.533333,-0.110646
10.566667,-0.022632
10.600000,0.080773
10.633333,0.183337
10.666667,0.266880
10.700000,0.316016
10.733333,0.322534
10.766667,0.287312
10.800000,0.219391
10.833333,0.133255
10.866667,0.045134
10.900000,-0.031046
10.933333,-0.086753
10.966667,-0.119654
11.000000,-0.132326
11.033333,-0.130056
11.066667,-0.118532
11.100000,-0.101866
11.133333,-0.081784
11.166667,-0.058692
11.200000,-0.033796
11.233333,-0.010570
11.266667,0.005381
11.300000,0.007936
11.333333,-0.006912
11.366667,-0.038532
11.400000,-0.081232
11.433333,-0.127070
11.466667,-0.170341
11.500000,-0.210379
11.533333,-0.250432
11.566667,-0.292912
11.600000,-0.333226
11.633333,-0.355441
11.666667,-0.333070
11.700000,-0.236545
11.733333,-0.045929
11.766667,0.235233
11.800000,0.570412
11.833333,0.891003
11.866667,1.111829
11.900000,1.159040
11.933333,0.999519
11.966667,0.657785
12.000000,0.212382
12.033333,-0.226523
12.066667,-0.550243
12.100000,-0.684529
12.133333,-0.611205
12.166667,-0.370839
12.200000,-0.046400
12.233333,0.264197
12.266667,0.475071
12.300000,0.529548
12.333333,0.404923
12.366667,0.109756
12.400000,-0.318658
12.433333,-0.814423
12.466667,-1.286940
12.500000,-1.636040
12.533333,-1.777517
12.566667,-1.668579
12.600000,-1.320832
12.633333,-0.794604
12.666667,-0.177493
12.700000,0.442767
12.733333,0.998471
12.766667,1.447006
12.800000,1.762146
12.833333,1.921020
12.866667,1.897810
12.900000,1.670878
12.933333,1.241966
12.966667,0.656579
13.000000,0.009960
13.033333,-0.570706
13.066667,-0.963528
13.100000,-1.093333
13.133333,-0.959317
13.166667,-0.635934
13.200000,-0.244856
13.233333,0.090297
13.266667,0.285398
13.300000,0.315254
13.333333,0.206966
13.366667,0.017241
13.400000,-0.191965
13.433333,-0.369951
13.466667,-0.483848
13.500000,-0.518488
13.533333,-0.474358
13.566667,-0.366294
13.600000,-0.221946
13.633333,-0.077464
13.666667,0.030520
13.700000,0.075046
13.733333,0.048080
13.766667,-0.034696
13.800000,-0.136664
13.833333,-0.211288
13.866667,-0.217876
13.900000,-0.135897
13.933333,0.027555
13.966667,0.239553
14.000000,0.451522
14.033333,0.613964
14.066667,0.690077
14.100000,0.663873
14.133333,0.542027
14.166667,0.350896
14.200000,0.129549
14.233333,-0.080416
14.266667,-0.245370
14.300000,-0.346238
14.333333,-0.379142
14.366667,-0.351518
14.400000,-0.276792
14.433333,-0.170515
14.466667,-0.049562
14.500000,0.066463
14.533333,0.154957
14.566667,0.194193
14.600000,0.170687
14.633333,0.085952
14.666667,-0.041404
14.700000,-0.179674
14.733333,-0.292970
14.766667,-0.351978
14.800000,-0.342363
14.833333,-0.267801
14.866667,-0.147565
14.900000,-0.010680
14.933333,0.111693
14.966667,0.194590
15.000000,0.226322
15.033333,0.211454
15.066667,0.168056
15.100000,0.120050
15.133333,0.087451
15.166667,0.078542
15.200000,0.087957
15.233333,0.101804
15.266667,0.106242
15.300000,0.093901
15.333333,0.065024
15.366667,0.024517
15.400000,-0.021953
15.433333,-0.070096
15.466667,-0.116314
15.500000,-0.155420
15.533333,-0.179745
15.566667,-0.181555
15.600000,-0.157282
15.633333,-0.110166
15.666667,-0.049508
15.700000,0.012523
15.733333,0.064477
15.766667,0.098073
15.800000,0.108803
15.833333,0.095359
15.866667,0.059601
15.900000,0.007871
15.933333,-0.048008
15.966667,-0.092525
16.000000,-0.111279
16.033333,-0.096601
16.066667,-0.051512
16.100000,0.009583
16.133333,0.064195
16.166667,0.088630
16.200000,0.066429
16.233333,-0.004143
16.266667,-0.105399
16.300000,-0.200332
16.333333,-0.240277
16.366667,-0.180776
16.400000,-0.000858
16.433333,0.283242
16.466667,0.617282
16.500000,0.922171
16.533333,1.115451
16.566667,1.132122
16.600000,0.938089
16.633333,0.535917
16.666667,-0.032901
16.700000,-0.688059
16.733333,-1.318375
16.766667,-1.802890
16.800000,-2.041636
16.833333,-1.984006
16.866667,-1.642428
16.900000,-1.086083
16.933333,-0.418149
16.966667,0.253568
17.000000,0.840904
17.033333,1.286608
17.066667,1.562125
17.100000,1.657471
17.133333,1.571284
17.166667,1.308731
17.200000,0.890518
17.233333,0.367187
17.266667,-0.174484
17.300000,-0.623722
17.333333,-0.876509
17.366667,-0.873606
17.400000,-0.628851
17.433333,-0.232096
17.466667,0.179270
17.500000,0.470533
17.533333,0.558782
17.566667,0.437966
17.600000,0.170903
17.633333,-0.143240
17.666667,-0.408265
17.700000,-0.560884
17.733333,-0.582846
17.766667,-0.495721
17.800000,-0.345108
17.833333,-0.182311
17.866667,-0.048889
17.900000,0.033134
17.933333,0.063725
17.966667,0.059754
18.000000,0.044964
18.033333,0.039513
18.066667,0.052813
18.100000,0.081511
18.133333,0.112857
18.166667,0.131804
18.200000,0.128192
18.233333,0.100487
18.266667,0.055366
18.300000,0.004834
18.333333,-0.037491
18.366667,-0.060180
18.400000,-0.057129
18.433333,-0.029139
18.466667,0.016242
18.500000,0.066462
18.533333,0.107443
18.566667,0.128278
18.600000,0.125045
18.633333,0.101469
18.666667,0.066424
18.700000,0.030135
18.733333,0.000691
18.766667,-0.018343
18.800000,-0.028362
18.833333,-0.033812
18.866667,-0.039122
18.900000,-0.046498
18.933333,-0.055433
18.966667,-0.063433
19.000000,-0.067385
19.033333,-0.065066
19.066667,-0.055916
19.100000,-0.040636
19.133333,-0.020444
19.166667,0.002879
19.200000,0.026558
19.233333,0.047092
19.266667,0.061279
19.300000,0.067110
19.333333,0.064184
19.366667,0.053852
19.400000,0.038677
19.433333,0.020865
19.466667,0.000676
19.500000,-0.023549
19.533333,-0.053631
19.566667,-0.089385
19.600000,-0.127159
19.633333,-0.159487
19.666667,-0.176346
19.700000,-0.168180
19.733333,-0.129599
19.766667,-0.062083
19.800000,0.025136
19.833333,0.116142
19.866667,0.191722
19.900000,0.234903
19.933333,0.236742
19.966667,0.199532
20.000000,0.135877
20.033333,0.064062
20.066667,0.001377
20.100000,-0.041976
20.133333,-0.065264
20.166667,-0.074551
20.200000,-0.077212
20.233333,-0.077658
20.266667,-0.076542
20.300000,-0.072830
20.333333,-0.066845
20.366667,-0.062335
20.400000,-0.065914
20.433333,-0.083579
20.466667,-0.116040
20.500000,-0.155276
20.533333,-0.183575
20.566667,-0.175733
20.600000,-0.105586
20.633333,0.043114
20.666667,0.265215
20.700000,0.528641
20.733333,0.779437
20.766667,0.956237
20.800000,1.007618
20.833333,0.904303
20.866667,0.642166
20.900000,0.239262
20.933333,-0.265935
20.966667,-0.812706
21.000000,-1.318980
21.033333,-1.693130
21.066667,-1.856755
21.100000,-1.769048
21.133333,-1.440892
21.166667,-0.932006
21.200000,-0.332324
21.233333,0.264198
21.266667,0.781999
21.300000,1.174121
21.333333,1.419230
21.366667,1.511077
21.400000,1.448562
21.433333,1.233877
21.466667,0.881686
21.500000,0.433622
21.533333,-0.034645
21.566667,-0.424261
21.600000,-0.642131
21.633333,-0.637156
21.666667,-0.426819
21.700000,-0.098233
21.733333,0.221870
21.766667,0.416778
21.800000,0.424526
21.833333,0.255394
21.866667,-0.022979
21.900000,-0.319830
21.933333,-0.555501
21.966667,-0.682263
22.000000,-0.688583
22.033333,-0.591595
22.066667,-0.425326
22.100000,-0.230088
22.133333,-0.044372
22.166667,0.101305
22.200000,0.188504
22.233333,0.212173
22.266667,0.179385
22.300000,0.106551
22.333333,0.015777
22.366667,-0.069359
22.400000,-0.127827
22.433333,-0.144199
22.466667,-0.110941
22.500000,-0.030273
22.533333,0.085208
22.566667,0.214382
22.600000,0.331775
22.633333,0.412838
22.666667,0.439518
22.700000,0.405247
22.733333,0.317383
22.766667,0.195253
22.800000,0.064362
22.833333,-0.050710
22.866667,-0.132577
22.900000,-0.175157
22.933333,-0.184180
22.966667,-0.173438
23.000000,-0.158605
23.033333,-0.151865
23.066667,-0.159030
23.100000,-0.178656
23.133333,-0.202351
23.166667,-0.216509
23.200000,-0.205956
23.233333,-0.159362
23.266667,-0.075281
23.300000,0.033695
23.333333,0.142015
23.366667,0.219119
23.400000,0.241570
23.433333,0.203420
23.466667,0.119580
23.500000,0.020672
23.533333,-0.058423
23.566667,-0.091564
23.600000,-0.070306
23.633333,-0.005187
23.666667,0.080097
23.700000,0.158061
23.733333,0.206440
23.766667,0.214035
23.800000,0.181701
23.833333,0.118849
23.866667,0.038264
23.900000,-0.047705
23.933333,-0.128844
23.966667,-0.197677
24.000000,-0.249475
24.033333,-0.281318
24.066667,-0.290548
24.100000,-0.273854
24.133333,-0.227840
24.166667,-0.151162
24.200000,-0.047789
24.233333,0.070043
24.266667,0.181796
24.300000,0.263276
24.333333,0.294532
24.366667,0.267215
24.400000,0.188188
24.433333,0.078201
24.466667,-0.034053
24.500000,-0.120655
24.533333,-0.162558
24.566667,-0.154048
24.600000,-0.102920
24.633333,-0.027494
24.666667,0.048428
24.700000,0.101754
24.733333,0.115975
24.766667,0.085639
24.800000,0.019420
24.833333,-0.058704
24.866667,-0.112870
24.900000,-0.105681
24.933333,-0.013146
24.966667,0.162817
25.000000,0.390873
25.033333,0.617347
25.066667,0.780014
25.100000,0.822403
25.133333,0.704528
25.166667,0.410970
25.200000,-0.040423
25.233333,-0.590881
25.266667,-1.142614
25.300000,-1.577787
25.333333,-1.791443
25.366667,-1.724911
25.400000,-1.384915
25.433333,-0.840814
25.466667,-0.202005
25.500000,0.414709
25.533333,0.914808
25.566667,1.242679
25.600000,1.382377
25.633333,1.346584
25.666667,1.161699
25.700000,0.858161
25.733333,0.471829
25.766667,0.053292
25.800000,-0.326350
25.833333,-0.584046
25.866667,-0.649236
25.900000,-0.495092
25.933333,-0.160904
25.966667,0.249635
26.000000,0.599970
26.033333,0.771190
26.066667,0.707365
26.100000,0.433103
26.133333,0.037100
26.166667,-0.366164
26.200000,-0.676867
26.233333,-0.836871
26.266667,-0.837223
26.300000,-0.708958
26.333333,-0.505260
26.366667,-0.283030
26.400000,-0.088549
26.433333,0.051005
26.466667,0.129425
26.500000,0.157100
26.533333,0.152981
26.566667,0.136536
26.600000,0.122047
26.633333,0.115958
26.666667,0.117364
26.700000,0.121058
26.733333,0.121135
26.766667,0.113194
26.800000,0.095019
26.833333,0.066907
26.866667,0.032013
26.900000,-0.003871
26.933333,-0.033355
26.966667,-0.049063
27.000000,-0.045801
27.033333,-0.022935
27.066667,0.014378
27.100000,0.056355
27.133333,0.091693
27.166667,0.111013
27.200000,0.109629
27.233333,0.089113
27.266667,0.056797
27.300000,0.022797
27.333333,-0.004111
27.366667,-0.019625
27.400000,-0.025032
27.433333,-0.026347
27.466667,-0.031563
27.500000,-0.046598
27.533333,-0.071895
27.566667,-0.101714
27.600000,-0.126278
27.633333,-0.135353
27.666667,-0.121917
27.700000,-0.084994
27.733333,-0.030538
27.766667,0.030117
27.800000,0.083288
27.833333,0.116169
27.866667,0.120109
27.900000,0.093940
27.933333,0.045753
27.966667,-0.008865
28.000000,-0.052014
28.033333,-0.069774
28.066667,-0.057126
28.100000,-0.019788
28.133333,0.028074
28.166667,0.069611
28.200000,0.091701
28.233333,0.088805
28.266667,0.063318
28.300000,0.023471
28.333333,-0.020061
28.366667,-0.057893
28.400000,-0.084574
28.433333,-0.098929
28.466667,-0.102535
28.500000,-0.097780
28.533333,-0.086311
28.566667,-0.068073
28.600000,-0.041486
28.633333,-0.005063
28.666667,0.040525
28.700000,0.091322
28.733333,0.140161
28.766667,0.177538
28.800000,0.193329
28.833333,0.179297
28.866667,0.131088
28.900000,0.048654
28.933333,-0.063977
28.966667,-0.197694
29.000000,-0.335996
29.033333,-0.453415
29.066667,-0.516985
29.100000,-0.492258
29.133333,-0.354043
29.166667,-0.099203
29.200000,0.244532
29.233333,0.620003
29.266667,0.953740
29.300000,1.175615
29.333333,1.236218
29.366667,1.114750
29.400000,0.816457
29.433333,0.366302
29.466667,-0.192322
29.500000,-0.792717
29.533333,-1.343445
29.566667,-1.741149
29.600000,-1.897696
29.633333,-1.769750
29.666667,-1.376076
29.700000,-0.794177
29.733333,-0.137507
29.766667,0.477321
29.800000,0.960088
29.833333,1.262737
29.866667,1.378374
29.900000,1.327763
29.933333,1.141708
29.966667,0.849313
30.000000,0.479149
30.033333,0.070946
30.066667,-0.314299
30.100000,-0.598635
30.133333,-0.709554
30.166667,-0.612200
30.200000,-0.334901
30.233333,0.028970
30.266667,0.350009
30.300000,0.512679
30.333333,0.461920
30.366667,0.222851
30.400000,-0.114283
30.433333,-0.432937
30.466667,-0.632946
30.500000,-0.660279
30.533333,-0.516605
30.566667,-0.250857
30.600000,0.059601
30.633333,0.330908
30.666667,0.493653
30.700000,0.510028
30.733333,0.383095
30.766667,0.154261
30.800000,-0.110739
30.833333,-0.342150
30.866667,-0.485788
30.900000,-0.516005
30.933333,-0.438557
30.966667,-0.283640
31.000000,-0.093148
31.033333,0.092230
31.066667,0.241998
31.100000,0.339479
31.133333,0.380531
31.166667,0.369444
31.200000,0.315112
31.233333,0.229460
31.266667,0.127278
31.300000,0.025336
31.333333,-0.060080
31.366667,-0.116605
31.400000,-0.139316
31.433333,-0.133004
31.466667,-0.111064
31.500000,-0.090010
31.533333,-0.081760
31.566667,-0.087980
31.600000,-0.099523
31.633333,-0.101092
31.666667,-0.078936
31.700000,-0.028056
31.733333,0.044680
31.766667,0.122936
31.800000,0.186970
31.833333,0.220132
31.866667,0.213814
31.900000,0.170054
31.933333,0.100933
31.966667,0.024419
32.000000,-0.041768
32.033333,-0.085761
32.066667,-0.104950
32.100000,-0.106370
32.133333,-0.103391
32.166667,-0.109172
32.200000,-0.129697
32.233333,-0.160024
32.266667,-0.185522
32.300000,-0.187439
32.333333,-0.150873
32.366667,-0.072273
32.400000,0.037086
32.433333,0.153767
32.466667,0.249719
32.500000,0.301068
32.533333,0.295031
32.566667,0.233252
32.600000,0.130714
32.633333,0.010669
32.666667,-0.102076
32.700000,-0.186820
32.733333,-0.230657
32.766667,-0.230397
32.800000,-0.192419
32.833333,-0.129945
32.866667,-0.058484
32.900000,0.008712
32.933333,0.063733
32.966667,0.104821
33.000000,0.134357
33.033333,0.154657
33.066667,0.164077
33.100000,0.156001
33.133333,0.121028
33.166667,0.050954
33.200000,-0.056512
33.233333,-0.193130
33.266667,-0.337351
33.300000,-0.455445
33.333333,-0.507114
33.366667,-0.454918
33.400000,-0.276411
33.433333,0.023585
33.466667,0.405873
33.500000,0.800657
33.533333,1.123627
33.566667,1.299149
33.600000,1.281016
33.633333,1.061843
33.666667,0.668332
33.700000,0.148650
33.733333,-0.437392
33.766667,-1.020348
33.800000,-1.520980
33.833333,-1.857412
33.866667,-1.962328
33.900000,-1.803586
33.933333,-1.398009
33.966667,-0.811256
34.000000,-0.142724
34.033333,0.499320
34.066667,1.022994
34.100000,1.369393
34.133333,1.516170
34.166667,1.469809
34.200000,1.253390
34.233333,0.898997
34.266667,0.450182
34.300000,-0.029768
34.333333,-0.455762
34.366667,-0.734610
34.400000,-0.793586
34.433333,-0.612583
34.466667,-0.243699
34.500000,0.195761
34.533333,0.560311
34.566667,0.730329
34.600000,0.657725
