# Time_Sec,Amplitude
0.000000,-0.000111
0.033333,0.000827
0.066667,0.001479
0.100000,0.001717
0.133333,0.001661
0.166667,0.001599
0.200000,0.001805
0.233333,0.002363
0.266667,0.003099
0.300000,0.003635
0.333333,0.003534
0.366667,0.002456
0.400000,0.000309
0.433333,-0.002673
0.466667,-0.005953
0.500000,-0.008849
0.533333,-0.010754
0.566667,-0.011322
0.600000,-0.010536
0.633333,-0.008652
0.666667,-0.006066
0.700000,-0.003177
0.733333,-0.000288
0.766667,0.002402
0.800000,0.004745
0.833333,0.006573
0.866667,0.007713
0.900000,0.008049
0.933333,0.007611
0.966667,0.006615
1.000000,0.005429
1.033333,0.004478
1.066667,0.004105
1.100000,0.004458
1.133333,0.005435
1.166667,0.006694
1.200000,0.007736
1.233333,0.008033
1.266667,0.007177
1.300000,0.005014
1.333333,0.001702
1.366667,-0.002314
1.400000,-0.006415
1.433333,-0.009970
1.466667,-0.012495
1.500000,-0.013761
1.533333,-0.013827
1.566667,-0.012973
1.600000,-0.011578
1.633333,-0.009983
1.666667,-0.008385
1.700000,-0.006791
1.733333,-0.005051
1.766667,-0.002941
1.800000,-0.000281
1.833333,0.002938
1.866667,0.006460
1.900000,0.009765
1.933333,0.012197
1.966667,0.013162
2.000000,0.012330
2.033333,0.009763
2.066667,0.005920
2.100000,0.001575
2.133333,-0.002371
2.166667,-0.005095
2.200000,-0.006039
2.233333,-0.005029
2.266667,-0.002329
2.300000,0.001410
2.333333,0.005298
2.366667,0.008451
2.400000,0.010224
2.433333,0.010354
2.466667,0.008977
2.500000,0.006535
2.533333,0.003627
2.566667,0.000856
2.600000,-0.001316
2.633333,-0.002635
2.666667,-0.003073
2.700000,-0.002791
2.733333,-0.002111
2.766667,-0.001477
2.800000,-0.001406
2.833333,-0.002407
2.866667,-0.004870
2.900000,-0.008937
2.933333,-0.014362
2.966667,-0.020393
3.000000,-0.025752
3.033333,-0.028821
3.066667,-0.028039
3.100000,-0.022449
3.133333,-0.012209
3.166667,0.001168
3.200000,0.015038
3.233333,0.026329
3.266667,0.032535
3.300000,0.032582
3.333333,0.027154
3.366667,0.018331
3.400000,0.008781
3.433333,0.000905
3.466667,-0.003774
3.500000,-0.004864
3.533333,-0.002977
3.566667,0.000661
3.600000,0.004685
3.633333,0.007956
3.666667,0.009742
3.700000,0.009722
3.733333,0.007924
3.766667,0.004648
3.800000,0.000401
3.833333,-0.004168
3.866667,-0.008341
3.900000,-0.011448
3.933333,-0.012988
3.966667,-0.012752
4.000000,-0.010885
4.033333,-0.007877
4.066667,-0.004455
4.100000,-0.001415
4.133333,0.000594
4.166667,0.001251
4.200000,0.000651
4.233333,-0.000750
4.266667,-0.002333
4.300000,-0.003550
4.333333,-0.004084
4.366667,-0.003884
4.400000,-0.003102
4.433333,-0.001992
4.466667,-0.000829
4.500000,0.000164
4.533333,0.000864
4.566667,0.001255
4.600000,0.001407
4.633333,0.001425
4.666667,0.001407
4.700000,0.001424
4.733333,0.001532
4.766667,0.001783
4.800000,0.002216
4.833333,0.002843
4.866667,0.003611
4.900000,0.004399
4.933333,0.005026
4.966667,0.005313
5.000000,0.005159
5.033333,0.004612
5.066667,0.003865
5.100000,0.003181
5.133333,0.002741
5.166667,0.002523
5.200000,0.002300
5.233333,0.001762
5.266667,0.000672
5.300000,-0.001027
5.333333,-0.003183
5.366667,-0.005465
5.400000,-0.007442
5.433333,-0.008701
5.466667,-0.008968
5.500000,-0.008176
5.533333,-0.006478
5.566667,-0.004194
5.600000,-0.001734
5.633333,0.000507
5.666667,0.002237
5.700000,0.003319
5.733333,0.003784
5.766667,0.003796
5.800000,0.003567
5.833333,0.003278
5.866667,0.003006
5.900000,0.002706
5.933333,0.002246
5.966667,0.001481
6.000000,0.000340
6.033333,-0.001116
6.066667,-0.002682
6.100000,-0.004069
6.133333,-0.004982
6.166667,-0.005195
6.200000,-0.004591
6.233333,-0.003191
6.266667,-0.001162
6.300000,0.001181
6.333333,0.003404
6.366667,0.005031
6.400000,0.005674
6.433333,0.005167
6.466667,0.003641
6.500000,0.001510
6.533333,-0.000637
6.566667,-0.002207
6.600000,-0.002779
6.633333,-0.002234
6.666667,-0.000805
6.700000,0.000996
6.733333,0.002549
6.766667,0.003342
6.800000,0.003135
6.833333,0.002037
6.866667,0.000445
6.900000,-0.001115
6.933333,-0.002182
6.966667,-0.002503
7.000000,-0.002079
7.033333,-0.001126
7.066667,0.000017
7.100000,0.000985
7.133333,0.001489
7.166667,0.001375
7.200000,0.000666
7.233333,-0.000444
7.266667,-0.001622
7.300000,-0.002492
7.333333,-0.002755
7.366667,-0.002299
7.400000,-0.001244
7.433333,0.000085
7.466667,0.001244
7.500000,0.001825
7.533333,0.001603
7.566667,0.000626
7.600000,-0.000786
7.633333,-0.002147
7.666667,-0.002971
7.700000,-0.002936
7.733333,-0.001991
7.766667,-0.000378
7.800000,0.001437
7.833333,0.002908
7.866667,0.003570
7.900000,0.003189
7.933333,0.001845
7.966667,-0.000079
8.000000,-0.001995
8.033333,-0.003300
8.066667,-0.003567
8.100000,-0.002685
8.133333,-0.000882
8.166667,0.001363
8.200000,0.003467
8.233333,0.004911
8.266667,0.005363
8.300000,0.004748
8.333333,0.003248
8.366667,0.001244
8.400000,-0.000800
8.433333,-0.002451
8.466667,-0.003415
8.500000,-0.003580
8.533333,-0.003022
8.566667,-0.001969
8.600000,-0.000752
8.633333,0.000274
8.666667,0.000819
8.700000,0.000744
8.733333,0.000110
8.766667,-0.000826
8.800000,-0.001686
8.833333,-0.002098
8.866667,-0.001828
8.900000,-0.000873
8.933333,0.000539
8.966667,0.002019
9.000000,0.003136
9.033333,0.003535
9.066667,0.003035
9.100000,0.001685
9.133333,-0.000231
9.166667,-0.002257
9.200000,-0.003872
9.233333,-0.004643
9.266667,-0.004344
9.300000,-0.003019
9.333333,-0.000952
9.366667,0.001408
9.400000,0.003554
9.433333,0.005031
9.466667,0.005535
9.500000,0.004997
9.533333,0.003600
9.566667,0.001735
9.600000,-0.000123
9.633333,-0.001567
9.666667,-0.002379
9.700000,-0.002567
9.733333,-0.002320
9.766667,-0.001914
9.800000,-0.001600
9.833333,-0.001518
9.866667,-0.001666
9.900000,-0.001904
9.933333,-0.002031
9.966667,-0.001872
10.000000,-0.001370
10.033333,-0.000617
10.066667,0.000192
10.100000,0.000852
10.133333,0.001239
10.166667,0.001337
10.200000,0.001222
10.233333,0.001005
10.266667,0.000780
10.300000,0.000604
10.333333,0.000497
10.366667,0.000482
10.400000,0.000595
10.433333,0.000872
10.466667,0.001302
10.500000,0.001801
10.533333,0.002234
10.566667,0.002465
10.600000,0.002405
10.633333,0.002035
10.666667,0.001381
10.700000,0.000486
10.733333,-0.000589
10.766667,-0.001751
10.800000,-0.002846
10.833333,-0.003690
10.866667,-0.004125
10.900000,-0.004077
10.933333,-0.003575
10.966667,-0.002727
11.000000,-0.001678
11.033333,-0.000573
11.066667,0.000451
11.100000,0.001254
11.133333,0.001688
11.166667,0.001624
11.200000,0.001031
11.233333,0.000053
11.266667,-0.000964
11.300000,-0.001551
11.333333,-0.001270
11.366667,0.000099
11.400000,0.002419
11.433333,0.005170
11.466667,0.007569
11.500000,0.008811
11.533333,0.008357
11.566667,0.006138
11.600000,0.002591
11.633333,-0.001499
11.666667,-0.005263
11.700000,-0.008011
11.733333,-0.009396
11.766667,-0.009435
11.800000,-0.008420
11.833333,-0.006746
11.866667,-0.004752
11.900000,-0.002637
11.933333,-0.000482
11.966667,0.001648
12.000000,0.003605
12.033333,0.005130
12.066667,0.005928
12.100000,0.005787
12.133333,0.004705
12.166667,0.002935
12.200000,0.000934
12.233333,-0.000769
12.266667,-0.001750
12.300000,-0.001835
12.333333,-0.001147
12.366667,-0.000053
12.400000,0.000990
12.433333,0.001614
12.466667,0.001671
12.500000,0.001246
12.533333,0.000573
12.566667,-0.000093
12.600000,-0.000588
12.633333,-0.000875
12.666667,-0.001016
12.700000,-0.001103
12.733333,-0.001186
12.766667,-0.001243
12.800000,-0.001191
12.833333,-0.000932
12.866667,-0.000405
12.900000,0.000372
12.933333,0.001293
12.966667,0.002172
13.000000,0.002779
13.033333,0.002911
13.066667,0.002473
13.100000,0.001531
13.133333,0.000286
13.166667,-0.001009
13.200000,-0.002145
13.233333,-0.003003
13.266667,-0.003548
13.300000,-0.003788
13.333333,-0.003751
13.366667,-0.003468
13.400000,-0.002970
13.433333,-0.002285
13.466667,-0.001439
13.500000,-0.000473
13.533333,0.000540
13.566667,0.001488
13.600000,0.002239
13.633333,0.002684
13.666667,0.002774
13.700000,0.002539
13.733333,0.002069
13.766667,0.001481
13.800000,0.000892
13.833333,0.000407
13.866667,0.000119
13.900000,0.000101
13.933333,0.000380
13.966667,0.000912
14.000000,0.001567
14.033333,0.002156
14.066667,0.002485
14.100000,0.002415
14.133333,0.001907
14.166667,0.001027
14.200000,-0.000077
14.233333,-0.001216
14.266667,-0.002197
14.300000,-0.002850
14.333333,-0.003055
14.366667,-0.002765
14.400000,-0.002036
14.433333,-0.001028
14.466667,0.000022
14.500000,0.000849
14.533333,0.001231
14.566667,0.001051
14.600000,0.000342
14.633333,-0.000712
14.666667,-0.001818
14.700000,-0.002658
14.733333,-0.002975
14.766667,-0.002638
14.800000,-0.001682
14.833333,-0.000303
14.866667,0.001185
14.900000,0.002425
14.933333,0.003125
14.966667,0.003135
15.000000,0.002475
15.033333,0.001328
15.066667,-0.000008
15.100000,-0.001190
15.133333,-0.001915
15.166667,-0.002016
15.200000,-0.001515
15.233333,-0.000622
15.266667,0.000335
15.300000,0.001021
15.333333,0.001212
15.366667,0.000875
15.400000,0.000184
15.433333,-0.000550
15.466667,-0.000992
15.500000,-0.000912
15.533333,-0.000267
15.566667,0.000783
15.600000,0.001925
15.633333,0.002794
15.666667,0.003074
15.700000,0.002590
15.733333,0.001368
15.766667,-0.000344
15.800000,-0.002112
15.833333,-0.003415
15.866667,-0.003799
15.900000,-0.003033
15.933333,-0.001219
15.966667,0.001200
16.000000,0.003545
16.033333,0.005117
16.066667,0.005420
16.100000,0.004323
16.133333,0.002081
16.166667,-0.000758
16.200000,-0.003512
16.233333,-0.005543
16.266667,-0.006422
16.300000,-0.006029
16.333333,-0.004582
16.366667,-0.002552
16.400000,-0.000498
16.433333,0.001102
16.466667,0.001978
16.500000,0.002109
16.533333,0.001677
16.566667,0.000977
16.600000,0.000310
16.633333,-0.000117
16.666667,-0.000231
16.700000,-0.000090
16.733333,0.000189
16.766667,0.000496
16.800000,0.000779
16.833333,0.001037
16.866667,0.001278
16.900000,0.001482
16.933333,0.001579
16.966667,0.001470
17.000000,0.001081
17.033333,0.000428
17.066667,-0.000357
17.100000,-0.001061
17.133333,-0.001471
17.166667,-0.001467
17.200000,-0.001059
17.233333,-0.000363
17.266667,0.000462
17.300000,0.001264
17.333333,0.001927
17.366667,0.002368
17.400000,0.002529
17.433333,0.002374
17.466667,0.001897
17.500000,0.001138
17.533333,0.000185
17.566667,-0.000830
17.600000,-0.001759
17.633333,-0.002479
17.666667,-0.002921
17.700000,-0.003085
17.733333,-0.003014
17.766667,-0.002771
17.800000,-0.002415
17.833333,-0.002003
17.866667,-0.001591
17.900000,-0.001236
17.933333,-0.000987
17.966667,-0.000858
18.000000,-0.000815
18.033333,-0.000756
18.066667,-0.000524
18.100000,0.000045
18.133333,0.001059
18.166667,0.002495
18.200000,0.004167
18.233333,0.005737
18.266667,0.006776
18.300000,0.006889
18.333333,0.005853
18.366667,0.003733
18.400000,0.000899
18.433333,-0.002076
18.466667,-0.004588
18.500000,-0.006166
18.533333,-0.006580
18.566667,-0.005854
18.600000,-0.004237
18.633333,-0.002124
18.666667,0.000029
18.700000,0.001796
18.733333,0.002869
18.766667,0.003104
18.800000,0.002536
18.833333,0.001364
18.866667,-0.000094
18.900000,-0.001466
18.933333,-0.002399
18.966667,-0.002645
19.000000,-0.002120
19.033333,-0.000936
19.066667,0.000623
19.100000,0.002163
19.133333,0.003281
19.166667,0.003677
19.200000,0.003247
19.233333,0.002107
19.266667,0.000561
19.300000,-0.001000
19.333333,-0.002206
19.366667,-0.002810
19.400000,-0.002748
19.433333,-0.002143
19.466667,-0.001248
19.500000,-0.000356
19.533333,0.000298
19.566667,0.000595
19.600000,0.000546
19.633333,0.000266
19.666667,-0.000077
19.700000,-0.000323
19.733333,-0.000360
19.766667,-0.000156
19.800000,0.000243
19.833333,0.000725
19.866667,0.001161
19.900000,0.001447
19.933333,0.001522
19.966667,0.001364
20.000000,0.000971
20.033333,0.000359
20.066667,-0.000412
20.100000,-0.001213
20.133333,-0.001846
20.166667,-0.002091
20.200000,-0.001789
20.233333,-0.000919
20.266667,0.000367
20.300000,0.001765
20.333333,0.002904
20.366667,0.003452
20.400000,0.003214
20.433333,0.002205
20.466667,0.000650
20.500000,-0.001087
20.533333,-0.002620
20.566667,-0.003661
20.600000,-0.004073
20.633333,-0.003874
20.666667,-0.003185
20.700000,-0.002183
20.733333,-0.001048
20.766667,0.000045
20.800000,0.000938
20.833333,0.001503
20.866667,0.001678
20.900000,0.001496
20.933333,0.001102
20.966667,0.000708
21.000000,0.000522
21.033333,0.000652
21.066667,0.001059
21.100000,0.001555
21.133333,0.001891
21.166667,0.001862
21.200000,0.001404
21.233333,0.000616
21.266667,-0.000267
21.300000,-0.000970
21.333333,-0.001275
21.366667,-0.001109
21.400000,-0.000577
21.433333,0.000083
21.466667,0.000599
21.500000,0.000780
21.533333,0.000585
21.566667,0.000109
21.600000,-0.000482
21.633333,-0.001018
21.666667,-0.001371
21.700000,-0.001475
21.733333,-0.001333
21.766667,-0.001002
21.800000,-0.000558
21.833333,-0.000078
21.866667,0.000367
21.900000,0.000704
21.933333,0.000858
21.966667,0.000770
22.000000,0.000427
22.033333,-0.000108
22.066667,-0.000683
22.100000,-0.001092
22.133333,-0.001146
22.166667,-0.000767
22.200000,-0.000026
22.233333,0.000865
22.266667,0.001625
22.300000,0.001991
22.333333,0.001806
22.366667,0.001080
22.400000,-0.000005
22.433333,-0.001152
22.466667,-0.002030
22.500000,-0.002374
22.533333,-0.002058
22.566667,-0.001137
22.600000,0.000163
22.633333,0.001503
22.666667,0.002522
22.700000,0.002954
22.733333,0.002701
22.766667,0.001856
22.800000,0.000650
22.833333,-0.000627
22.866667,-0.001706
22.900000,-0.002405
22.933333,-0.002654
22.966667,-0.002489
23.000000,-0.002006
23.033333,-0.001296
23.066667,-0.000414
23.100000,0.000602
23.133333,0.001671
23.166667,0.002637
23.200000,0.003289
23.233333,0.003435
23.266667,0.002990
23.300000,0.002020
23.333333,0.000722
23.366667,-0.000647
23.400000,-0.001860
23.433333,-0.002777
23.466667,-0.003343
23.500000,-0.003555
23.533333,-0.003421
23.566667,-0.002968
23.600000,-0.002281
23.633333,-0.001526
23.666667,-0.000917
23.700000,-0.000635
23.733333,-0.000722
23.766667,-0.001025
23.800000,-0.001234
23.833333,-0.000988
23.866667,-0.000028
23.900000,0.001686
23.933333,0.003941
23.966667,0.006317
24.000000,0.008290
24.033333,0.009363
24.066667,0.009191
24.100000,0.007693
24.133333,0.005095
24.166667,0.001875
24.200000,-0.001378
24.233333,-0.004129
24.266667,-0.006022
24.300000,-0.006946
24.333333,-0.007014
24.366667,-0.006466
24.400000,-0.005550
24.433333,-0.004429
24.466667,-0.003167
24.500000,-0.001806
24.533333,-0.000458
24.566667,0.000636
24.600000,0.001140
24.633333,0.000760
24.666667,-0.000599
24.700000,-0.002730
24.733333,-0.005129
24.766667,-0.007100
24.800000,-0.007894
24.833333,-0.006905
24.866667,-0.003878
24.900000,0.000912
24.933333,0.006626
24.966667,0.012041
25.000000,0.015896
25.033333,0.017263
25.066667,0.015799
25.100000,0.011813
25.133333,0.006167
25.166667,0.000073
25.200000,-0.005193
25.233333,-0.008619
25.266667,-0.009732
25.300000,-0.008714
25.333333,-0.006290
25.366667,-0.003453
25.400000,-0.001111
25.433333,0.000174
25.466667,0.000290
25.500000,-0.000492
25.533333,-0.001676
25.566667,-0.002734
25.600000,-0.003265
25.633333,-0.003084
25.666667,-0.002217
25.700000,-0.000842
25.733333,0.000778
25.766667,0.002342
25.800000,0.003550
25.833333,0.004156
25.866667,0.004023
25.900000,0.003163
25.933333,0.001733
25.966667,-0.000003
26.000000,-0.001719
26.033333,-0.003084
26.066667,-0.003822
26.100000,-0.003764
26.133333,-0.002883
26.166667,-0.001319
26.200000,0.000617
26.233333,0.002498
26.266667,0.003876
26.300000,0.004409
26.333333,0.003971
26.366667,0.002690
26.400000,0.000905
26.433333,-0.000948
26.466667,-0.002465
26.500000,-0.003378
26.533333,-0.003589
26.566667,-0.003152
26.600000,-0.002227
26.633333,-0.001024
26.666667,0.000241
26.700000,0.001384
26.733333,0.002275
26.766667,0.002842
26.800000,0.003059
26.833333,0.002927
26.866667,0.002460
26.900000,0.001687
26.933333,0.000666
26.966667,-0.000503
27.000000,-0.001675
27.033333,-0.002678
27.066667,-0.003335
27.100000,-0.003512
27.133333,-0.003148
27.166667,-0.002292
27.200000,-0.001103
27.233333,0.000165
27.266667,0.001227
27.300000,0.001843
27.333333,0.001898
27.366667,0.001446
27.400000,0.000710
27.433333,0.000021
27.466667,-0.000295
27.500000,-0.000045
27.533333,0.000733
27.566667,0.001763
27.600000,0.002620
27.633333,0.002899
27.666667,0.002385
27.700000,0.001130
27.733333,-0.000558
27.766667,-0.002231
27.800000,-0.003429
27.833333,-0.003819
27.866667,-0.003294
27.900000,-0.002004
27.933333,-0.000315
27.966667,0.001292
28.000000,0.002361
28.033333,0.002595
28.066667,0.001955
28.100000,0.000648
28.133333,-0.000962
28.166667,-0.002481
28.200000,-0.003576
28.233333,-0.004015
28.266667,-0.003683
28.300000,-0.002599
28.333333,-0.000919
28.366667,0.001071
28.400000,0.003009
28.433333,0.004541
28.466667,0.005410
28.500000,0.005507
28.533333,0.004870
28.566667,0.003651
28.600000,0.002069
28.633333,0.000364
28.666667,-0.001251
28.700000,-0.002613
28.733333,-0.003600
28.766667,-0.004116
28.800000,-0.004079
28.833333,-0.003454
28.866667,-0.002304
28.900000,-0.000817
28.933333,0.000722
28.966667,0.002002
29.000000,0.002771
29.033333,0.002902
29.066667,0.002418
29.100000,0.001493
29.133333,0.000399
29.166667,-0.000565
29.200000,-0.001178
29.233333,-0.001383
29.266667,-0.001325
29.300000,-0.001282
29.333333,-0.001508
29.366667,-0.002072
29.400000,-0.002785
29.433333,-0.003268
29.466667,-0.003123
29.500000,-0.002130
29.533333,-0.000373
29.566667,0.001761
29.600000,0.003715
29.633333,0.004970
29.666667,0.005233
29.700000,0.004507
29.733333,0.003032
29.766667,0.001160
29.800000,-0.000750
29.833333,-0.002380
29.866667,-0.003456
29.900000,-0.003783
29.933333,-0.003304
29.966667,-0.002150
30.000000,-0.000617
30.033333,0.000941
30.066667,0.002243
30.100000,0.003157
30.133333,0.003672
30.166667,0.003831
30.200000,0.003664
30.233333,0.003177
30.266667,0.002371
30.300000,0.001291
30.333333,0.000044
30.366667,-0.001222
30.400000,-0.002365
30.433333,-0.003292
30.466667,-0.003971
30.500000,-0.004412
30.533333,-0.004632
30.566667,-0.004624
30.600000,-0.004356
30.633333,-0.003781
30.666667,-0.002873
30.700000,-0.001676
30.733333,-0.000333
30.766667,0.000919
30.800000,0.001836
30.833333,0.002297
30.866667,0.002387
30.900000,0.002361
30.933333,0.002488
30.966667,0.002886
31.000000,0.003443
31.033333,0.003874
31.066667,0.003890
31.100000,0.003361
31.133333,0.002399
31.166667,0.001311
31.200000,0.000438
31.233333,-0.000029
31.266667,-0.000153
31.300000,-0.000224
31.333333,-0.000574
31.366667,-0.001370
31.400000,-0.002483
31.433333,-0.003518
31.466667,-0.003982
31.500000,-0.003509
31.533333,-0.002051
31.566667,0.000045
31.600000,0.002135
31.633333,0.003516
31.666667,0.003681
31.700000,0.002494
31.733333,0.000223
31.766667,-0.002545
31.800000,-0.005076
31.833333,-0.006705
31.866667,-0.007009
31.900000,-0.005917
31.933333,-0.003707
31.966667,-0.000917
32.000000,0.001812
32.033333,0.003920
32.066667,0.005078
32.100000,0.005252
32.133333,0.004656
32.166667,0.003630
32.200000,0.002508
32.233333,0.001529
32.266667,0.000825
32.300000,0.000444
32.333333,0.000378
32.366667,0.000571
32.400000,0.000919
32.433333,0.001290
32.466667,0.001541
32.500000,0.001534
32.533333,0.001165
32.566667,0.000409
32.600000,-0.000627
32.633333,-0.001686
32.666667,-0.002431
32.700000,-0.002576
32.733333,-0.002034
32.766667,-0.000989
32.800000,0.000167
32.833333,0.000990
32.866667,0.001165
32.900000,0.000611
32.933333,-0.000517
32.966667,-0.001897
33.000000,-0.003149
33.033333,-0.003954
33.066667,-0.004141
33.100000,-0.003736
33.133333,-0.002926
33.166667,-0.001991
33.200000,-0.001187
33.233333,-0.000641
33.266667,-0.000301
33.300000,0.000032
33.333333,0.000579
33.366667,0.001448
33.400000,0.002562
33.433333,0.003676
33.466667,0.004476
33.500000,0.004709
33.533333,0.004290
33.566667,0.003356
33.600000,0.002216
33.633333,0.001224
33.666667,0.000625
33.700000,0.000467
33.733333,0.000614
33.766667,0.000843
33.800000,0.000948
33.833333,0.000798
33.866667,0.000344
33.900000,-0.000391
33.933333,-0.001327
33.966667,-0.002328
34.000000,-0.003219
34.033333,-0.003827
34.066667,-0.004026
34.100000,-0.003779
34.133333,-0.003136
34.166667,-0.002207
34.200000,-0.001144
34.233333,-0.000121
34.266667,0.000696
34.300000,0.001179
34.333333,0.001276
34.366667,0.001036
34.400000,0.000608
34.433333,0.000205
34.466667,0.000036
34.500000,0.000242
34.533333,0.000845
34.566667,0.001735
34.600000,0.002697
34.633333,0.003454
34.666667,0.003727
