Time_Sec,Amplitude
0.000000,-0.394814
0.033333,1.009280
0.066667,1.984661
0.100000,2.218523
0.133333,1.615054
0.166667,0.323557
0.200000,-1.309503
0.233333,-2.847641
0.266667,-3.892361
0.300000,-4.191173
0.333333,-3.695160
0.366667,-2.552546
0.400000,-1.045720
0.433333,0.502605
0.466667,1.821400
0.500000,2.753233
0.533333,3.268486
0.566667,3.430473
0.600000,3.332979
0.633333,3.048146
0.666667,2.612595
0.700000,2.047461
0.733333,1.384845
0.766667,0.678757
0.800000,-0.001534
0.833333,-0.587160
0.866667,-1.027027
0.900000,-1.301387
0.933333,-1.426029
0.966667,-1.444941
1.000000,-1.415493
1.033333,-1.392830
1.066667,-1.417039
1.100000,-1.502841
1.133333,-1.631630
1.166667,-1.748822
1.200000,-1.771543
1.233333,-1.609924
1.266667,-1.200228
1.300000,-0.541436
1.333333,0.279146
1.366667,1.088109
1.400000,1.667057
1.433333,1.827949
1.466667,1.497067
1.500000,0.767584
1.533333,-0.112961
1.566667,-0.823546
1.600000,-1.086300
1.633333,-0.769754
1.666667,0.061070
1.700000,1.164208
1.733333,2.201927
1.766667,2.855051
1.800000,2.928884
1.833333,2.410558
1.866667,1.458299
1.900000,0.333890
1.933333,-0.688714
1.966667,-1.403567
2.000000,-1.718871
2.033333,-1.661995
2.066667,-1.349603
2.100000,-0.937558
2.133333,-0.568352
2.166667,-0.332177
2.200000,-0.251774
2.233333,-0.291917
2.266667,-0.385210
2.300000,-0.461709
2.333333,-0.472052
2.366667,-0.398723
2.400000,-0.254749
2.433333,-0.073089
2.466667,0.107223
2.500000,0.252593
2.533333,0.341765
2.566667,0.368481
2.600000,0.340446
2.633333,0.275126
2.666667,0.194242
2.700000,0.119218
2.733333,0.068221
2.766667,0.053921
2.800000,0.081472
2.833333,0.146961
2.866667,0.236498
2.900000,0.326643
2.933333,0.387898
2.966667,0.392106
3.000000,0.321386
3.033333,0.174464
3.066667,-0.031942
3.100000,-0.266371
3.133333,-0.489367
3.166667,-0.662380
3.200000,-0.756535
3.233333,-0.758726
3.266667,-0.673701
3.300000,-0.522141
3.333333,-0.335072
3.366667,-0.145500
3.400000,0.020438
3.433333,0.149711
3.466667,0.243936
3.500000,0.316039
3.533333,0.383405
3.566667,0.460458
3.600000,0.554500
3.633333,0.666428
3.666667,0.793138
3.700000,0.926058
3.733333,1.043819
3.766667,1.104094
3.800000,1.044595
3.833333,0.801732
3.866667,0.345295
3.900000,-0.287481
3.933333,-0.982444
3.966667,-1.576738
4.000000,-1.914547
4.033333,-1.903397
4.066667,-1.545148
4.100000,-0.930740
4.133333,-0.205306
4.166667,0.478219
4.200000,0.997243
4.233333,1.277934
4.266667,1.295368
4.300000,1.064963
4.333333,0.633316
4.366667,0.070368
4.400000,-0.539347
4.433333,-1.108409
4.466667,-1.559008
4.500000,-1.831781
4.533333,-1.890884
4.566667,-1.728701
4.600000,-1.368604
4.633333,-0.858698
4.666667,-0.255519
4.700000,0.391804
4.733333,1.045242
4.766667,1.669156
4.800000,2.218500
4.833333,2.632447
4.866667,2.838555
4.900000,2.770747
4.933333,2.397186
4.966667,1.743222
5.000000,0.894525
5.033333,-0.021114
5.066667,-0.863273
5.100000,-1.509677
5.133333,-1.882305
5.166667,-1.963070
5.200000,-1.793563
5.233333,-1.458541
5.266667,-1.059216
5.300000,-0.685391
5.333333,-0.395129
5.366667,-0.207745
5.400000,-0.110291
5.433333,-0.071907
5.466667,-0.058593
5.500000,-0.043749
5.533333,-0.013300
5.566667,0.034281
5.600000,0.091846
5.633333,0.148907
5.666667,0.195903
5.700000,0.226583
5.733333,0.238980
5.766667,0.235096
5.800000,0.219276
5.833333,0.196180
5.866667,0.169589
5.900000,0.142100
5.933333,0.114986
5.966667,0.088253
6.000000,0.061333
6.033333,0.033981
6.066667,0.006515
6.100000,-0.020436
6.133333,-0.045919
6.166667,-0.068518
6.200000,-0.086694
6.233333,-0.099320
6.266667,-0.105642
6.300000,-0.104885
6.333333,-0.096199
6.366667,-0.078781
6.400000,-0.051496
6.433333,-0.012290
6.466667,0.041788
6.500000,0.113907
6.533333,0.206543
6.566667,0.319955
6.600000,0.449681
6.633333,0.584150
6.666667,0.703960
6.700000,0.782707
6.733333,0.788684
6.766667,0.690011
6.800000,0.467487
6.833333,0.132617
6.866667,-0.262571
6.900000,-0.637091
6.933333,-0.911659
6.966667,-1.040377
7.000000,-1.024948
7.033333,-0.905837
7.066667,-0.738808
7.100000,-0.571504
7.133333,-0.431971
7.166667,-0.331987
7.200000,-0.278211
7.233333,-0.279420
7.266667,-0.342005
7.300000,-0.455656
7.333333,-0.579809
7.366667,-0.642644
7.400000,-0.558049
7.433333,-0.256931
7.466667,0.277584
7.500000,0.984588
7.533333,1.722403
7.566667,2.296265
7.600000,2.514813
7.633333,2.259485
7.666667,1.539261
7.700000,0.503553
7.733333,-0.596937
7.766667,-1.486266
7.800000,-1.944741
7.833333,-1.867175
7.866667,-1.285039
7.900000,-0.354186
7.933333,0.684287
7.966667,1.562061
8.000000,2.050004
8.033333,2.016519
8.066667,1.459247
8.100000,0.500042
8.133333,-0.652273
8.166667,-1.757949
8.200000,-2.606774
8.233333,-3.068267
8.266667,-3.116129
8.300000,-2.816866
8.333333,-2.285906
8.366667,-1.629161
8.400000,-0.896407
8.433333,-0.071286
8.466667,0.890895
8.500000,1.991742
8.533333,3.125584
8.566667,4.070181
8.600000,4.552792
8.633333,4.364865
8.666667,3.464802
8.700000,2.012117
8.733333,0.315635
8.766667,-1.273966
8.800000,-2.473353
8.833333,-3.134343
8.866667,-3.255220
8.900000,-2.945271
8.933333,-2.365734
8.966667,-1.672792
9.000000,-0.981268
9.033333,-0.355487
9.066667,0.177939
9.100000,0.607803
9.133333,0.920357
9.166667,1.095574
9.200000,1.118504
9.233333,0.996830
9.266667,0.771230
9.300000,0.509374
9.333333,0.284129
9.366667,0.145536
9.400000,0.100142
9.433333,0.109023
9.466667,0.107484
9.500000,0.037842
9.533333,-0.121274
9.566667,-0.343565
9.600000,-0.565409
9.633333,-0.710999
9.666667,-0.720894
9.700000,-0.573652
9.733333,-0.293912
9.766667,0.054344
9.800000,0.385598
9.833333,0.615902
9.866667,0.686400
9.900000,0.582269
9.933333,0.340281
9.966667,0.039232
10.000000,-0.225717
10.033333,-0.375462
10.066667,-0.373410
10.100000,-0.236000
10.133333,-0.023809
10.166667,0.182605
10.200000,0.311894
10.233333,0.324677
10.266667,0.222764
10.300000,0.044006
10.333333,-0.153604
10.366667,-0.312230
10.400000,-0.391328
10.433333,-0.376010
10.466667,-0.276177
10.500000,-0.120037
10.533333,0.054427
10.566667,0.208634
10.600000,0.312380
10.633333,0.350718
10.666667,0.326500
10.700000,0.257527
10.733333,0.169241
10.766667,0.085673
10.800000,0.022205
10.833333,-0.017303
10.866667,-0.038896
10.900000,-0.054054
10.933333,-0.074201
10.966667,-0.105801
11.000000,-0.148048
11.033333,-0.194384
11.066667,-0.236691
11.100000,-0.269160
11.133333,-0.289491
11.166667,-0.297250
11.200000,-0.290809
11.233333,-0.265071
11.266667,-0.211993
11.300000,-0.124488
11.333333,-0.002141
11.366667,0.144204
11.400000,0.291700
11.433333,0.410102
11.466667,0.471244
11.500000,0.460097
11.533333,0.382007
11.566667,0.261905
11.600000,0.135581
11.633333,0.037051
11.666667,-0.012871
11.700000,-0.012666
11.733333,0.021288
11.766667,0.062497
11.800000,0.084338
11.833333,0.067824
11.866667,0.005560
11.900000,-0.097060
11.933333,-0.222204
11.966667,-0.341328
12.000000,-0.418765
12.033333,-0.417963
12.066667,-0.311104
12.100000,-0.090780
12.133333,0.220748
12.166667,0.570026
12.200000,0.880694
12.233333,1.069526
12.266667,1.066093
12.300000,0.831529
12.333333,0.371945
12.366667,-0.256901
12.400000,-0.955220
12.433333,-1.596193
12.466667,-2.054483
12.500000,-2.240906
12.533333,-2.130240
12.566667,-1.767637
12.600000,-1.247381
12.633333,-0.671293
12.666667,-0.105394
12.700000,0.442681
12.733333,1.009945
12.766667,1.630908
12.800000,2.282778
12.833333,2.859291
12.866667,3.195594
12.900000,3.135951
12.933333,2.609617
12.966667,1.674592
13.000000,0.506780
13.033333,-0.657928
13.066667,-1.598902
13.100000,-2.171509
13.133333,-2.334579
13.166667,-2.142176
13.200000,-1.709908
13.233333,-1.172665
13.266667,-0.650014
13.300000,-0.228071
13.333333,0.043048
13.366667,0.143901
13.400000,0.081152
13.433333,-0.111591
13.466667,-0.369456
13.500000,-0.596507
13.533333,-0.680241
13.566667,-0.524287
13.600000,-0.091142
13.633333,0.564114
13.666667,1.290276
13.700000,1.878368
13.733333,2.134640
13.766667,1.959144
13.800000,1.389430
13.833333,0.582416
13.866667,-0.257161
13.900000,-0.961350
13.933333,-1.451844
13.966667,-1.739039
14.000000,-1.876603
14.033333,-1.902684
14.066667,-1.802408
14.100000,-1.512571
14.133333,-0.966155
14.166667,-0.153063
14.200000,0.835917
14.233333,1.808893
14.266667,2.525324
14.300000,2.785681
14.333333,2.519148
14.366667,1.821700
14.400000,0.918197
14.433333,0.066321
14.466667,-0.545787
14.500000,-0.858358
14.533333,-0.936170
14.566667,-0.915721
14.600000,-0.933618
14.633333,-1.066037
14.666667,-1.299076
14.700000,-1.536554
14.733333,-1.638968
14.766667,-1.478315
14.800000,-0.990929
14.833333,-0.212689
14.866667,0.715411
14.900000,1.578336
14.933333,2.151539
14.966667,2.279949
15.000000,1.938915
15.033333,1.246539
15.066667,0.418555
15.100000,-0.313755
15.133333,-0.784699
15.166667,-0.940611
15.200000,-0.837613
15.233333,-0.599199
15.266667,-0.356968
15.300000,-0.200483
15.333333,-0.154012
15.366667,-0.184284
15.400000,-0.230416
15.433333,-0.239219
15.466667,-0.188949
15.500000,-0.092521
15.533333,0.016919
15.566667,0.106803
15.600000,0.160483
15.633333,0.180622
15.666667,0.181321
15.700000,0.175623
15.733333,0.167398
15.766667,0.152620
15.800000,0.127079
15.833333,0.092632
15.866667,0.056697
15.900000,0.026392
15.933333,0.002668
15.966667,-0.021322
16.000000,-0.056862
16.033333,-0.113197
16.066667,-0.190850
16.100000,-0.277711
16.133333,-0.350200
16.166667,-0.380114
16.200000,-0.345246
16.233333,-0.239403
16.266667,-0.076610
16.300000,0.113690
16.333333,0.299129
16.366667,0.458628
16.400000,0.590425
16.433333,0.708334
16.466667,0.826733
16.500000,0.941705
16.533333,1.019075
16.566667,0.997435
16.600000,0.807834
16.633333,0.405098
16.666667,-0.200729
16.700000,-0.929496
16.733333,-1.646552
16.766667,-2.207074
16.800000,-2.507605
16.833333,-2.516808
16.866667,-2.269905
16.900000,-1.832756
16.933333,-1.258388
16.966667,-0.563089
17.000000,0.261287
17.033333,1.203893
17.066667,2.187855
17.100000,3.054778
17.133333,3.600339
17.166667,3.650152
17.200000,3.139066
17.233333,2.151816
17.266667,0.902838
17.300000,-0.334032
17.333333,-1.311698
17.366667,-1.876916
17.400000,-1.998991
17.433333,-1.758122
17.466667,-1.303958
17.500000,-0.801990
17.533333,-0.386188
17.566667,-0.130914
17.600000,-0.046113
17.633333,-0.091623
17.666667,-0.201849
17.700000,-0.311156
17.733333,-0.372537
17.766667,-0.366346
17.800000,-0.299896
17.833333,-0.200472
17.866667,-0.104077
17.900000,-0.042250
17.933333,-0.030324
17.966667,-0.061013
18.000000,-0.105998
18.033333,-0.125488
18.066667,-0.082963
18.100000,0.040058
18.133333,0.234985
18.166667,0.466559
18.200000,0.682499
18.233333,0.829048
18.266667,0.867523
18.300000,0.786408
18.333333,0.604237
18.366667,0.362067
18.400000,0.109336
18.433333,-0.110493
18.466667,-0.269519
18.500000,-0.358319
18.533333,-0.382874
18.566667,-0.358137
18.600000,-0.301811
18.633333,-0.230712
18.666667,-0.159497
18.700000,-0.100292
18.733333,-0.062381
18.766667,-0.051692
18.800000,-0.069393
18.833333,-0.109455
18.866667,-0.157104
18.900000,-0.190978
18.933333,-0.189768
18.966667,-0.141014
19.000000,-0.048055
19.033333,0.068612
19.066667,0.177531
19.100000,0.248258
19.133333,0.263351
19.166667,0.224253
19.200000,0.148917
19.233333,0.063730
19.266667,-0.005952
19.300000,-0.043174
19.333333,-0.042928
19.366667,-0.012091
19.400000,0.032838
19.433333,0.069422
19.466667,0.074966
19.500000,0.034216
19.533333,-0.053367
19.566667,-0.170606
19.600000,-0.286096
19.633333,-0.363339
19.666667,-0.372571
19.700000,-0.301379
19.733333,-0.160146
19.766667,0.019981
19.800000,0.195896
19.833333,0.325143
19.866667,0.378666
19.900000,0.349992
19.933333,0.257383
19.966667,0.137250
20.000000,0.030755
20.033333,-0.031156
20.066667,-0.038169
20.100000,-0.002248
20.133333,0.049788
20.166667,0.088810
20.200000,0.094687
20.233333,0.061625
20.266667,-0.002943
20.300000,-0.083326
20.333333,-0.161550
20.366667,-0.222421
20.400000,-0.256307
20.433333,-0.259068
20.466667,-0.229891
20.500000,-0.168557
20.533333,-0.073674
20.566667,0.056668
20.600000,0.221049
20.633333,0.409407
20.666667,0.600475
20.700000,0.764774
20.733333,0.871025
20.766667,0.891040
20.800000,0.800889
20.833333,0.581039
20.866667,0.220095
20.900000,-0.275265
20.933333,-0.866969
20.966667,-1.478346
21.000000,-2.004315
21.033333,-2.340931
21.066667,-2.421052
21.100000,-2.235638
21.133333,-1.827627
21.166667,-1.261638
21.200000,-0.587289
21.233333,0.180553
21.266667,1.048159
21.300000,1.998627
21.333333,2.943233
21.366667,3.706550
21.400000,4.069443
21.433333,3.858262
21.466667,3.034280
21.500000,1.731508
21.533333,0.220178
21.566667,-1.183656
21.600000,-2.216894
21.633333,-2.736730
21.666667,-2.739695
21.700000,-2.336951
21.733333,-1.702959
21.766667,-1.018706
21.800000,-0.427358
21.833333,-0.011457
21.866667,0.208779
21.900000,0.262348
21.933333,0.206912
21.966667,0.106953
22.000000,0.015703
22.033333,-0.035532
22.066667,-0.039530
22.100000,-0.008185
22.133333,0.036906
22.166667,0.074990
22.200000,0.094231
22.233333,0.094707
22.266667,0.086115
22.300000,0.082077
22.333333,0.093607
22.366667,0.124144
22.400000,0.168092
22.433333,0.213410
22.466667,0.246660
22.500000,0.257796
22.533333,0.242929
22.566667,0.204850
22.600000,0.151661
22.633333,0.094058
22.666667,0.042346
22.700000,0.004322
22.733333,-0.015908
22.766667,-0.018724
22.800000,-0.009189
22.833333,0.004150
22.866667,0.011947
22.900000,0.007043
22.933333,-0.013595
22.966667,-0.048550
23.000000,-0.093094
23.033333,-0.141101
23.066667,-0.186628
23.100000,-0.224423
23.133333,-0.249558
23.166667,-0.257080
23.200000,-0.242107
23.233333,-0.200394
23.266667,-0.129359
23.300000,-0.029633
23.333333,0.093157
23.366667,0.226919
23.400000,0.352589
23.433333,0.445714
23.466667,0.481416
23.500000,0.442394
23.533333,0.326756
23.566667,0.151290
23.600000,-0.051910
23.633333,-0.244015
23.666667,-0.389825
23.700000,-0.466549
23.733333,-0.468503
23.766667,-0.406587
23.800000,-0.303071
23.833333,-0.183641
23.866667,-0.069494
23.900000,0.027630
23.933333,0.105525
23.966667,0.167083
24.000000,0.214377
24.033333,0.245004
24.066667,0.252581
24.100000,0.230699
24.133333,0.177924
24.166667,0.101035
24.200000,0.014469
24.233333,-0.063886
24.266667,-0.118214
24.300000,-0.138879
24.333333,-0.123886
24.366667,-0.078023
24.400000,-0.010621
24.433333,0.066926
24.466667,0.142692
24.500000,0.204475
24.533333,0.239852
24.566667,0.237316
24.600000,0.188510
24.633333,0.090603
24.666667,-0.051525
24.700000,-0.223137
24.733333,-0.398124
24.766667,-0.539839
24.800000,-0.605905
24.833333,-0.557323
24.866667,-0.370360
24.900000,-0.047831
24.933333,0.374559
24.966667,0.829931
25.000000,1.230268
25.033333,1.482627
25.066667,1.508738
25.100000,1.264448
25.133333,0.754356
25.166667,0.037130
25.200000,-0.780986
25.233333,-1.565500
25.266667,-2.184562
25.300000,-2.543957
25.333333,-2.611835
25.366667,-2.419379
25.400000,-2.034436
25.433333,-1.519855
25.466667,-0.898690
25.500000,-0.148717
25.533333,0.763648
25.566667,1.822819
25.600000,2.912496
25.633333,3.813509
25.666667,4.267912
25.700000,4.085298
25.733333,3.236514
25.766667,1.882693
25.800000,0.323664
25.833333,-1.105546
25.866667,-2.139387
25.900000,-2.647060
25.933333,-2.644159
25.966667,-2.258904
26.000000,-1.673191
26.033333,-1.061733
26.066667,-0.548612
26.100000,-0.190746
26.133333,0.013879
26.166667,0.103260
26.200000,0.125339
26.233333,0.117911
26.266667,0.099880
26.300000,0.074586
26.333333,0.040527
26.366667,0.001587
26.400000,-0.029446
26.433333,-0.035277
26.466667,-0.003194
26.500000,0.066575
26.533333,0.158205
26.566667,0.245267
26.600000,0.300795
26.633333,0.307378
26.666667,0.263442
26.700000,0.184456
26.733333,0.098968
26.766667,0.039957
26.800000,0.033491
26.833333,0.088410
26.866667,0.190989
26.900000,0.307261
26.933333,0.393258
26.966667,0.410020
27.000000,0.337153
27.033333,0.178955
27.066667,-0.038659
27.100000,-0.277285
27.133333,-0.496112
27.166667,-0.659389
27.200000,-0.740325
27.233333,-0.722713
27.266667,-0.602289
27.300000,-0.388772
27.333333,-0.107601
27.366667,0.200683
27.400000,0.485007
27.433333,0.692658
27.466667,0.781386
27.500000,0.731464
27.533333,0.552882
27.566667,0.284040
27.600000,-0.017670
27.633333,-0.289567
27.666667,-0.477240
27.700000,-0.545083
27.733333,-0.482766
27.766667,-0.307821
27.800000,-0.064255
27.833333,0.184400
27.866667,0.369400
27.900000,0.436736
27.933333,0.365450
27.966667,0.175378
28.000000,-0.079712
28.033333,-0.330254
28.066667,-0.512928
28.100000,-0.588857
28.133333,-0.551997
28.166667,-0.425662
28.200000,-0.250409
28.233333,-0.069532
28.266667,0.082877
28.300000,0.189286
28.333333,0.250698
28.366667,0.282657
28.400000,0.306210
28.433333,0.337236
28.466667,0.378511
28.500000,0.417715
28.533333,0.432418
28.566667,0.400299
28.600000,0.309968
28.633333,0.167152
28.666667,-0.006200
28.700000,-0.178410
28.733333,-0.316814
28.766667,-0.395881
28.800000,-0.402910
28.833333,-0.340662
28.866667,-0.227279
28.900000,-0.093748
28.933333,0.021767
28.966667,0.083109
29.000000,0.066976
29.033333,-0.028007
29.066667,-0.176661
29.100000,-0.328502
29.133333,-0.416385
29.166667,-0.373609
29.200000,-0.157278
29.233333,0.228799
29.266667,0.720968
29.300000,1.200737
29.333333,1.521552
29.366667,1.552269
29.400000,1.223059
29.433333,0.556030
29.466667,-0.332172
29.500000,-1.258989
29.533333,-2.028587
29.566667,-2.491201
29.600000,-2.586027
29.633333,-2.349159
29.666667,-1.883204
29.700000,-1.302984
29.733333,-0.683405
29.766667,-0.035988
29.800000,0.671599
29.833333,1.461111
29.866667,2.285608
29.900000,3.006981
29.933333,3.431528
29.966667,3.391244
30.000000,2.828003
30.033333,1.833529
30.066667,0.623946
30.100000,-0.535147
30.133333,-1.415170
30.166667,-1.887980
30.200000,-1.948786
30.233333,-1.697853
30.266667,-1.292392
30.300000,-0.888131
30.333333,-0.592197
30.366667,-0.442304
30.400000,-0.414162
30.433333,-0.447404
30.466667,-0.476074
30.500000,-0.452390
30.533333,-0.358130
30.566667,-0.203667
30.600000,-0.018759
30.633333,0.159664
30.666667,0.298896
30.700000,0.379029
30.733333,0.397181
30.766667,0.366318
30.800000,0.309508
30.833333,0.252246
30.866667,0.215446
30.900000,0.210469
30.933333,0.236955
30.966667,0.283743
31.000000,0.332185
31.033333,0.360721
31.066667,0.350147
31.100000,0.289026
31.133333,0.177536
31.166667,0.027869
31.200000,-0.138723
31.233333,-0.296282
31.266667,-0.418473
31.300000,-0.482988
31.333333,-0.476156
31.366667,-0.396921
31.400000,-0.258926
31.433333,-0.089465
31.466667,0.075616
31.500000,0.200823
31.533333,0.261237
31.566667,0.250298
31.600000,0.182239
31.633333,0.088228
31.666667,0.006788
31.700000,-0.029247
31.733333,-0.004892
31.766667,0.070622
31.800000,0.165995
31.833333,0.238004
31.866667,0.247000
31.900000,0.173130
31.933333,0.026701
31.966667,-0.153141
32.000000,-0.312050
32.033333,-0.400616
32.066667,-0.392407
32.100000,-0.292908
32.133333,-0.136335
32.166667,0.027772
32.200000,0.152003
32.233333,0.205333
32.266667,0.179837
32.300000,0.089681
32.333333,-0.035509
32.366667,-0.160216
32.400000,-0.252435
32.433333,-0.290231
32.466667,-0.264500
32.500000,-0.178778
32.533333,-0.047210
32.566667,0.108509
32.600000,0.262393
32.633333,0.387322
32.666667,0.459084
32.700000,0.462092
32.733333,0.394943
32.766667,0.272166
32.800000,0.120438
32.833333,-0.028999
32.866667,-0.148510
32.900000,-0.220224
32.933333,-0.238572
32.966667,-0.208982
33.000000,-0.144377
33.033333,-0.061949
33.066667,0.018807
33.100000,0.077591
33.133333,0.095489
33.166667,0.058255
33.200000,-0.039275
33.233333,-0.188237
33.266667,-0.362345
33.300000,-0.518920
33.333333,-0.605846
33.366667,-0.573588
33.400000,-0.389773
33.433333,-0.052811
33.466667,0.399923
33.500000,0.893458
33.533333,1.327555
33.566667,1.597741
33.600000,1.620230
33.633333,1.354415
33.666667,0.816448
33.700000,0.079738
33.733333,-0.737939
33.766667,-1.498667
33.800000,-2.076451
33.833333,-2.389299
33.866667,-2.418698
33.900000,-2.205554
33.933333,-1.822067
33.966667,-1.332117
34.000000,-0.760681
34.033333,-0.091111
34.066667,0.703364
34.100000,1.607361
34.133333,2.521175
34.166667,3.261244
34.200000,3.615156
34.233333,3.430042
34.266667,2.689204
34.300000,1.534647
34.333333,0.222807
34.366667,-0.962797
34.400000,-1.799947
34.433333,-2.183011
34.466667,-2.132551
34.500000,-1.765800
34.533333,-1.245224
34.566667,-0.725426
34.600000,-0.315225
