Time_Sec,Amplitude
0.000000,0.021389
0.033333,1.431134
0.066667,2.460808
0.100000,2.841809
0.133333,2.494977
0.166667,1.544438
0.200000,0.265269
0.233333,-1.011242
0.266667,-1.996106
0.300000,-2.512124
0.333333,-2.519403
0.366667,-2.098973
0.400000,-1.408116
0.433333,-0.626681
0.466667,0.087754
0.500000,0.625861
0.533333,0.933407
0.566667,1.005101
0.600000,0.872992
0.633333,0.595051
0.666667,0.245915
0.700000,-0.092024
0.733333,-0.340393
0.766667,-0.439928
0.800000,-0.364960
0.833333,-0.131564
0.866667,0.204607
0.900000,0.561590
0.933333,0.852834
0.966667,1.010704
1.000000,1.002762
1.033333,0.834771
1.066667,0.541586
1.100000,0.172745
1.133333,-0.219967
1.166667,-0.588936
1.200000,-0.891159
1.233333,-1.086414
1.266667,-1.138518
1.300000,-1.022672
1.333333,-0.736882
1.366667,-0.311795
1.400000,0.186888
1.433333,0.667282
1.466667,1.031811
1.500000,1.203840
1.533333,1.150011
1.566667,0.889018
1.600000,0.484847
1.633333,0.029141
1.666667,-0.381297
1.700000,-0.667080
1.733333,-0.784565
1.766667,-0.735655
1.800000,-0.565987
1.833333,-0.350557
1.866667,-0.169220
1.900000,-0.079320
1.933333,-0.096149
1.966667,-0.189555
2.000000,-0.297473
2.033333,-0.349733
2.066667,-0.292756
2.100000,-0.107199
2.133333,0.185702
2.166667,0.529126
2.200000,0.844255
2.233333,1.049615
2.266667,1.083490
2.300000,0.923994
2.333333,0.598073
2.366667,0.172979
2.400000,-0.267371
2.433333,-0.649997
2.466667,-0.931433
2.500000,-1.099670
2.533333,-1.160737
2.566667,-1.119381
2.600000,-0.966730
2.633333,-0.683869
2.666667,-0.260970
2.700000,0.277706
2.733333,0.857555
2.766667,1.359483
2.800000,1.652314
2.833333,1.641159
2.866667,1.308491
2.900000,0.725681
2.933333,0.028798
2.966667,-0.628290
3.000000,-1.121106
3.033333,-1.383078
3.066667,-1.408051
3.100000,-1.232484
3.133333,-0.911152
3.166667,-0.499259
3.200000,-0.046192
3.233333,0.401730
3.266667,0.796122
3.300000,1.086018
3.333333,1.226099
3.366667,1.191336
3.400000,0.989315
3.433333,0.661691
3.466667,0.273538
3.500000,-0.103595
3.533333,-0.407658
3.566667,-0.596486
3.600000,-0.651301
3.633333,-0.575415
3.666667,-0.392095
3.700000,-0.143667
3.733333,0.110383
3.766667,0.300436
3.800000,0.360548
3.833333,0.246760
3.866667,-0.045603
3.900000,-0.473839
3.933333,-0.956632
3.966667,-1.399100
4.000000,-1.721473
4.033333,-1.874517
4.066667,-1.833862
4.100000,-1.580596
4.133333,-1.085915
4.166667,-0.317760
4.200000,0.723996
4.233333,1.957817
4.266667,3.189574
4.300000,4.134861
4.333333,4.503374
4.366667,4.114670
4.400000,2.987962
4.433333,1.355456
4.466667,-0.411630
4.500000,-1.928242
4.533333,-2.914035
4.566667,-3.261067
4.600000,-3.037000
4.633333,-2.435252
4.666667,-1.696576
4.700000,-1.030013
4.733333,-0.557291
4.766667,-0.294102
4.800000,-0.168164
4.833333,-0.063427
4.866667,0.125370
4.900000,0.445348
4.933333,0.862133
4.966667,1.270310
5.000000,1.534123
5.033333,1.541811
5.066667,1.252077
5.100000,0.714919
5.133333,0.058616
5.166667,-0.552401
5.200000,-0.972074
5.233333,-1.118637
5.266667,-0.996300
5.300000,-0.687183
5.333333,-0.317776
5.366667,-0.012296
5.400000,0.149827
5.433333,0.156535
5.466667,0.058436
5.500000,-0.059022
5.533333,-0.113415
5.566667,-0.057510
5.600000,0.105996
5.633333,0.330425
5.666667,0.546331
5.700000,0.687853
5.733333,0.714563
5.766667,0.622581
5.800000,0.442898
5.833333,0.228727
5.866667,0.036530
5.900000,-0.093408
5.933333,-0.150727
5.966667,-0.157717
6.000000,-0.158674
6.033333,-0.199281
6.066667,-0.304798
6.100000,-0.466653
6.133333,-0.642831
6.166667,-0.771667
6.200000,-0.794184
6.233333,-0.677436
6.266667,-0.430482
6.300000,-0.106677
6.333333,0.209638
6.366667,0.429290
6.400000,0.490218
6.433333,0.384180
6.466667,0.165884
6.500000,-0.062844
6.533333,-0.190401
6.566667,-0.140057
6.600000,0.096580
6.633333,0.452149
6.666667,0.807025
6.700000,1.035078
6.733333,1.051697
6.766667,0.842663
6.800000,0.463069
6.833333,0.010570
6.866667,-0.412359
6.900000,-0.730366
6.933333,-0.909620
6.966667,-0.952897
7.000000,-0.883331
7.033333,-0.728433
7.066667,-0.512240
7.100000,-0.256622
7.133333,0.012486
7.166667,0.260469
7.200000,0.446689
7.233333,0.535405
7.266667,0.509571
7.300000,0.379304
7.333333,0.180063
7.366667,-0.038280
7.400000,-0.226117
7.433333,-0.346489
7.466667,-0.381204
7.500000,-0.330485
7.533333,-0.209301
7.566667,-0.043405
7.600000,0.134752
7.633333,0.291707
7.666667,0.400341
7.700000,0.446964
7.733333,0.435449
7.766667,0.385921
7.800000,0.326973
7.833333,0.283939
7.866667,0.269118
7.900000,0.278832
7.933333,0.297206
7.966667,0.302547
8.000000,0.272480
8.033333,0.186593
8.066667,0.027998
8.100000,-0.213168
8.133333,-0.532262
8.166667,-0.901617
8.200000,-1.268812
8.233333,-1.567121
8.266667,-1.734494
8.300000,-1.730396
8.333333,-1.541497
8.366667,-1.175219
8.400000,-0.648367
8.433333,0.017984
8.466667,0.789647
8.500000,1.600169
8.533333,2.337533
8.566667,2.854917
8.600000,3.010429
8.633333,2.721334
8.666667,2.006575
8.700000,0.994384
8.733333,-0.111323
8.766667,-1.090861
8.800000,-1.768873
8.833333,-2.053731
8.866667,-1.948597
8.900000,-1.537075
8.933333,-0.951967
8.966667,-0.338210
9.000000,0.179497
9.033333,0.518076
9.066667,0.645252
9.100000,0.577941
9.133333,0.371222
9.166667,0.100069
9.200000,-0.161543
9.233333,-0.358299
9.266667,-0.463550
9.300000,-0.479878
9.333333,-0.431035
9.366667,-0.348668
9.400000,-0.259209
9.433333,-0.175706
9.466667,-0.096555
9.500000,-0.010412
9.533333,0.094681
9.566667,0.221364
9.600000,0.357039
9.633333,0.475856
9.666667,0.548316
9.700000,0.553849
9.733333,0.490195
9.766667,0.374817
9.800000,0.237281
9.833333,0.106512
9.866667,0.000164
9.900000,-0.078386
9.933333,-0.135705
9.966667,-0.181081
10.000000,-0.220690
10.033333,-0.255007
10.066667,-0.279579
10.100000,-0.288101
10.133333,-0.275773
10.166667,-0.241218
10.200000,-0.186757
10.233333,-0.117652
10.266667,-0.040619
10.300000,0.037840
10.333333,0.112015
10.366667,0.175904
10.400000,0.222087
10.433333,0.242861
10.466667,0.233831
10.500000,0.197717
10.533333,0.145783
10.566667,0.095374
10.600000,0.063614
10.633333,0.059634
10.666667,0.079539
10.700000,0.107171
10.733333,0.119954
10.766667,0.096711
10.800000,0.024800
10.833333,-0.095002
10.866667,-0.247284
10.900000,-0.404994
10.933333,-0.535198
10.966667,-0.605457
11.000000,-0.590084
11.033333,-0.476426
11.066667,-0.270268
11.100000,0.001608
11.133333,0.293258
11.166667,0.546435
11.200000,0.702411
11.233333,0.717113
11.266667,0.575282
11.300000,0.298586
11.333333,-0.055353
11.366667,-0.403447
11.400000,-0.655991
11.433333,-0.740570
11.466667,-0.624552
11.500000,-0.328347
11.533333,0.076165
11.566667,0.483449
11.600000,0.784893
11.633333,0.903131
11.666667,0.817129
11.700000,0.567270
11.733333,0.238458
11.766667,-0.071120
11.800000,-0.283081
11.833333,-0.361938
11.866667,-0.320861
11.900000,-0.209980
11.933333,-0.094220
11.966667,-0.030309
12.000000,-0.049806
12.033333,-0.151013
12.066667,-0.300267
12.100000,-0.441667
12.133333,-0.512354
12.166667,-0.459630
12.200000,-0.257081
12.233333,0.082517
12.266667,0.500676
12.300000,0.897478
12.333333,1.150499
12.366667,1.148725
12.400000,0.834336
12.433333,0.235273
12.466667,-0.531868
12.500000,-1.296509
12.533333,-1.891270
12.566667,-2.202478
12.600000,-2.190977
12.633333,-1.879518
12.666667,-1.321396
12.700000,-0.573452
12.733333,0.308460
12.766667,1.250701
12.800000,2.138768
12.833333,2.816372
12.866667,3.120819
12.900000,2.944444
12.933333,2.291421
12.966667,1.296260
13.000000,0.189053
13.033333,-0.778098
13.066667,-1.409756
13.100000,-1.619776
13.133333,-1.443151
13.166667,-1.009243
13.200000,-0.490603
13.233333,-0.047957
13.266667,0.209697
13.300000,0.240888
13.333333,0.066402
13.366667,-0.248006
13.400000,-0.613295
13.433333,-0.938862
13.466667,-1.151103
13.500000,-1.205876
13.533333,-1.093246
13.566667,-0.834697
13.600000,-0.474337
13.633333,-0.067003
13.666667,0.332986
13.700000,0.679698
13.733333,0.939957
13.766667,1.095502
13.800000,1.143267
13.833333,1.093264
13.866667,0.964302
13.900000,0.778723
13.933333,0.557192
13.966667,0.314879
14.000000,0.061128
14.033333,-0.196286
14.066667,-0.444529
14.100000,-0.661056
14.133333,-0.814270
14.166667,-0.870280
14.200000,-0.804173
14.233333,-0.611743
14.266667,-0.315973
14.300000,0.035585
14.333333,0.381629
14.366667,0.661550
14.400000,0.828713
14.433333,0.859367
14.466667,0.755321
14.500000,0.540516
14.533333,0.253880
14.566667,-0.058850
14.600000,-0.353341
14.633333,-0.594159
14.666667,-0.759315
14.700000,-0.840023
14.733333,-0.836829
14.766667,-0.755405
14.800000,-0.604347
14.833333,-0.395376
14.866667,-0.145256
14.900000,0.122241
14.933333,0.376856
14.966667,0.586392
15.000000,0.723809
15.033333,0.773522
15.066667,0.734475
15.100000,0.619197
15.133333,0.449047
15.166667,0.247439
15.200000,0.034868
15.233333,-0.171243
15.266667,-0.353020
15.300000,-0.489297
15.333333,-0.557089
15.366667,-0.537930
15.400000,-0.426877
15.433333,-0.239820
15.466667,-0.014094
15.500000,0.200008
15.533333,0.353958
15.566667,0.415573
15.600000,0.378059
15.633333,0.261114
15.666667,0.104028
15.700000,-0.047376
15.733333,-0.155590
15.766667,-0.202795
15.800000,-0.195144
15.833333,-0.158769
15.866667,-0.128227
15.900000,-0.130732
15.933333,-0.172555
15.966667,-0.234370
16.000000,-0.278496
16.033333,-0.265453
16.066667,-0.173046
16.100000,-0.009507
16.133333,0.186043
16.166667,0.357099
16.200000,0.451510
16.233333,0.441971
16.266667,0.337208
16.300000,0.180223
16.333333,0.034405
16.366667,-0.037754
16.400000,0.003916
16.433333,0.162570
16.466667,0.400380
16.500000,0.646314
16.533333,0.814274
16.566667,0.827151
16.600000,0.639659
16.633333,0.253168
16.666667,-0.281147
16.700000,-0.872434
16.733333,-1.413603
16.766667,-1.812671
16.800000,-2.019151
16.833333,-2.031514
16.866667,-1.880929
16.900000,-1.599832
16.933333,-1.193495
16.966667,-0.633833
17.000000,0.114768
17.033333,1.046632
17.066667,2.070797
17.100000,3.003733
17.133333,3.613787
17.166667,3.703745
17.200000,3.194244
17.233333,2.166207
17.266667,0.840244
17.300000,-0.495827
17.333333,-1.576382
17.366667,-2.228759
17.400000,-2.405384
17.433333,-2.174628
17.466667,-1.680946
17.500000,-1.092562
17.533333,-0.555290
17.566667,-0.163981
17.600000,0.046621
17.633333,0.095869
17.666667,0.041169
17.700000,-0.043697
17.733333,-0.091352
17.766667,-0.059808
17.800000,0.056795
17.833333,0.228832
17.866667,0.403844
17.900000,0.527134
17.933333,0.561673
17.966667,0.498775
18.000000,0.356644
18.033333,0.170328
18.066667,-0.021013
18.100000,-0.184534
18.133333,-0.299010
18.166667,-0.354891
18.200000,-0.351469
18.233333,-0.293988
18.266667,-0.191946
18.300000,-0.058585
18.333333,0.088684
18.366667,0.227927
18.400000,0.334572
18.433333,0.386861
18.466667,0.373020
18.500000,0.296184
18.533333,0.174453
18.566667,0.036215
18.600000,-0.087583
18.633333,-0.171860
18.666667,-0.203646
18.700000,-0.184021
18.733333,-0.125733
18.766667,-0.048178
18.800000,0.028404
18.833333,0.087807
18.866667,0.120136
18.900000,0.121154
18.933333,0.090514
18.966667,0.031029
19.000000,-0.050891
19.033333,-0.144975
19.066667,-0.237662
19.100000,-0.313335
19.133333,-0.356276
19.166667,-0.353444
19.200000,-0.297269
19.233333,-0.187463
19.266667,-0.031864
19.300000,0.153312
19.333333,0.344323
19.366667,0.512492
19.400000,0.627960
19.433333,0.663685
19.466667,0.600002
19.500000,0.430213
19.533333,0.165716
19.566667,-0.161933
19.600000,-0.503299
19.633333,-0.797550
19.666667,-0.982870
19.700000,-1.009994
19.733333,-0.856045
19.766667,-0.534552
19.800000,-0.098031
19.833333,0.369360
19.866667,0.769919
19.900000,1.018142
19.933333,1.065586
19.966667,0.914533
20.000000,0.614822
20.033333,0.245851
20.066667,-0.108767
20.100000,-0.384327
20.133333,-0.547767
20.166667,-0.597103
20.200000,-0.551749
20.233333,-0.441342
20.266667,-0.298365
20.300000,-0.155145
20.333333,-0.042740
20.366667,0.011980
20.400000,-0.005867
20.433333,-0.087489
20.466667,-0.191880
20.500000,-0.249850
20.533333,-0.184815
20.566667,0.054768
20.600000,0.463942
20.633333,0.966293
20.666667,1.427586
20.700000,1.698410
20.733333,1.669726
20.766667,1.315339
20.800000,0.700936
20.833333,-0.043317
20.866667,-0.771967
20.900000,-1.371643
20.933333,-1.786254
20.966667,-2.013700
21.000000,-2.083813
21.033333,-2.034034
21.066667,-1.893870
21.100000,-1.679088
21.133333,-1.391006
21.166667,-1.017010
21.200000,-0.532722
21.233333,0.089558
21.266667,0.861043
21.300000,1.747080
21.333333,2.642140
21.366667,3.370570
21.400000,3.727477
21.433333,3.552163
21.466667,2.802371
21.500000,1.589777
21.533333,0.155599
21.566667,-1.201892
21.600000,-2.213489
21.633333,-2.705805
21.666667,-2.632459
21.700000,-2.069685
21.733333,-1.185598
21.766667,-0.195824
21.800000,0.682883
21.833333,1.273609
21.866667,1.471364
21.900000,1.262586
21.933333,0.725722
21.966667,0.007861
22.000000,-0.718856
22.033333,-1.306619
22.066667,-1.668810
22.100000,-1.791976
22.133333,-1.721702
22.166667,-1.530902
22.200000,-1.283851
22.233333,-1.009505
22.266667,-0.694216
22.300000,-0.296983
22.333333,0.219251
22.366667,0.854470
22.400000,1.551830
22.433333,2.200529
22.466667,2.661998
22.500000,2.812255
22.533333,2.586242
22.566667,2.005797
22.600000,1.177329
22.633333,0.259712
22.666667,-0.582283
22.700000,-1.219890
22.733333,-1.585245
22.766667,-1.675773
22.800000,-1.540810
22.833333,-1.257676
22.866667,-0.906864
22.900000,-0.554392
22.933333,-0.244470
22.966667,-0.000885
23.000000,0.166844
23.033333,0.257247
23.066667,0.274425
23.100000,0.229545
23.133333,0.142415
23.166667,0.039005
23.200000,-0.055167
23.233333,-0.122299
23.266667,-0.156653
23.300000,-0.164261
23.333333,-0.157988
23.366667,-0.149832
23.400000,-0.144115
23.433333,-0.134933
23.466667,-0.108678
23.500000,-0.050154
23.533333,0.049989
23.566667,0.189074
23.600000,0.350192
23.633333,0.505497
23.666667,0.623946
23.700000,0.680591
23.733333,0.663939
23.766667,0.577966
23.800000,0.437176
23.833333,0.257676
23.866667,0.051085
23.900000,-0.174085
23.933333,-0.405891
23.966667,-0.623861
24.000000,-0.799895
24.033333,-0.904720
24.066667,-0.916271
24.100000,-0.825722
24.133333,-0.638589
24.166667,-0.372030
24.200000,-0.052466
24.233333,0.283911
24.266667,0.590379
24.300000,0.814172
24.333333,0.908777
24.366667,0.850533
24.400000,0.651635
24.433333,0.361427
24.466667,0.052634
24.500000,-0.202371
24.533333,-0.353573
24.566667,-0.383457
24.600000,-0.303737
24.633333,-0.145024
24.666667,0.052924
24.700000,0.246571
24.733333,0.390892
24.766667,0.443153
24.800000,0.372312
24.833333,0.172937
24.866667,-0.123547
24.900000,-0.448580
24.933333,-0.710486
24.966667,-0.819793
25.000000,-0.718753
25.033333,-0.405916
25.066667,0.053507
25.100000,0.537661
25.133333,0.898764
25.166667,1.008223
25.200000,0.803015
25.233333,0.314206
25.266667,-0.339790
25.300000,-0.996872
25.333333,-1.511112
25.366667,-1.797513
25.400000,-1.840683
25.433333,-1.668663
25.466667,-1.312456
25.500000,-0.779105
25.533333,-0.058469
25.566667,0.837609
25.600000,1.829338
25.633333,2.751436
25.666667,3.385158
25.700000,3.532463
25.733333,3.099194
25.766667,2.145516
25.800000,0.876677
25.833333,-0.422015
25.866667,-1.475866
25.900000,-2.100816
25.933333,-2.247003
25.966667,-1.996073
26.000000,-1.518188
26.033333,-1.007466
26.066667,-0.620041
26.100000,-0.434467
26.133333,-0.442834
26.166667,-0.569319
26.200000,-0.705401
26.233333,-0.748535
26.266667,-0.632928
26.300000,-0.345945
26.333333,0.071218
26.366667,0.536936
26.400000,0.953309
26.433333,1.235101
26.466667,1.334299
26.500000,1.251248
26.533333,1.028489
26.566667,0.730720
26.600000,0.419959
26.633333,0.136963
26.666667,-0.103235
26.700000,-0.301985
26.733333,-0.462381
26.766667,-0.579497
26.800000,-0.640460
26.833333,-0.632517
26.866667,-0.553364
26.900000,-0.417405
26.933333,-0.253769
26.966667,-0.096530
27.000000,0.027567
27.033333,0.107361
27.066667,0.148032
27.100000,0.165127
27.133333,0.175405
27.166667,0.189079
27.200000,0.207184
27.233333,0.224494
27.266667,0.234610
27.300000,0.233209
27.333333,0.218277
27.366667,0.188822
27.400000,0.143558
27.433333,0.080376
27.466667,-0.002634
27.500000,-0.104382
27.533333,-0.217402
27.566667,-0.325907
27.600000,-0.406892
27.633333,-0.435099
27.666667,-0.391524
27.700000,-0.272746
27.733333,-0.096383
27.766667,0.101039
27.800000,0.273759
27.833333,0.380513
27.866667,0.397582
27.900000,0.326435
27.933333,0.192672
27.966667,0.036438
28.000000,-0.101310
28.033333,-0.190826
28.066667,-0.220057
28.100000,-0.194417
28.133333,-0.130879
28.166667,-0.049576
28.200000,0.032728
28.233333,0.104725
28.266667,0.159227
28.300000,0.191103
28.333333,0.196021
28.366667,0.170228
28.400000,0.111409
28.433333,0.020390
28.466667,-0.097366
28.500000,-0.231195
28.533333,-0.365045
28.566667,-0.477188
28.600000,-0.541109
28.633333,-0.529589
28.666667,-0.422517
28.700000,-0.216657
28.733333,0.066362
28.766667,0.378801
28.800000,0.656291
28.833333,0.836891
28.866667,0.881877
28.900000,0.788005
28.933333,0.585574
28.966667,0.324315
29.000000,0.054748
29.033333,-0.185898
29.066667,-0.377002
29.100000,-0.507772
29.133333,-0.567654
29.166667,-0.542216
29.200000,-0.417847
29.233333,-0.192737
29.266667,0.111436
29.300000,0.443427
29.333333,0.727056
29.366667,0.877649
29.400000,0.825995
29.433333,0.542368
29.466667,0.052887
29.500000,-0.559270
29.533333,-1.173119
29.566667,-1.666126
29.600000,-1.951911
29.633333,-1.999885
29.666667,-1.827112
29.700000,-1.469318
29.733333,-0.950534
29.766667,-0.272769
29.800000,0.563288
29.833333,1.515679
29.866667,2.465392
29.900000,3.218961
29.933333,3.561091
29.966667,3.338246
30.000000,2.532644
30.033333,1.286993
30.066667,-0.135068
30.100000,-1.433067
30.133333,-2.357883
30.166667,-2.769975
30.200000,-2.655685
30.233333,-2.108625
30.266667,-1.291459
30.300000,-0.393225
30.333333,0.407818
30.366667,0.972607
30.400000,1.221682
30.433333,1.146938
30.466667,0.810512
30.500000,0.326937
30.533333,-0.168913
30.566667,-0.558122
30.600000,-0.765788
30.633333,-0.772391
30.666667,-0.607622
30.700000,-0.332569
30.733333,-0.018954
30.766667,0.267737
30.800000,0.478361
30.833333,0.583854
30.866667,0.574381
30.900000,0.456417
30.933333,0.250154
30.966667,-0.012092
31.000000,-0.288142
31.033333,-0.530743
31.066667,-0.694706
31.100000,-0.744660
31.133333,-0.661734
31.166667,-0.448087
31.200000,-0.128488
31.233333,0.251325
31.266667,0.629453
31.300000,0.936432
31.333333,1.108413
31.366667,1.103205
31.400000,0.913485
31.433333,0.570861
31.466667,0.138869
31.500000,-0.301915
31.533333,-0.671653
31.566667,-0.907513
31.600000,-0.974968
31.633333,-0.872193
31.666667,-0.627866
31.700000,-0.293988
31.733333,0.064650
31.766667,0.382500
31.800000,0.604369
31.833333,0.693980
31.866667,0.639968
31.900000,0.459007
31.933333,0.193810
31.966667,-0.095845
32.000000,-0.347196
32.033333,-0.508884
32.066667,-0.551522
32.100000,-0.472534
32.133333,-0.294859
32.166667,-0.060416
32.200000,0.179339
32.233333,0.373448
32.266667,0.481152
32.300000,0.480298
32.333333,0.371849
32.366667,0.177885
32.400000,-0.066130
32.433333,-0.320720
32.466667,-0.549370
32.500000,-0.721404
32.533333,-0.811458
32.566667,-0.798162
32.600000,-0.665516
32.633333,-0.408917
32.666667,-0.044166
32.700000,0.385361
32.733333,0.808841
32.766667,1.139369
32.800000,1.296555
32.833333,1.233951
32.866667,0.959395
32.900000,0.537158
32.933333,0.069062
32.966667,-0.338238
33.000000,-0.606708
33.033333,-0.708241
33.066667,-0.666274
33.100000,-0.538859
33.133333,-0.392334
33.166667,-0.277450
33.200000,-0.216452
33.233333,-0.203470
33.266667,-0.214971
33.300000,-0.223217
33.333333,-0.205278
33.366667,-0.144579
33.400000,-0.028577
33.433333,0.151098
33.466667,0.392838
33.500000,0.675915
33.533333,0.953991
33.566667,1.158011
33.600000,1.212191
33.633333,1.059504
33.666667,0.685498
33.700000,0.128917
33.733333,-0.525019
33.766667,-1.165204
33.800000,-1.682716
33.833333,-1.998474
33.866667,-2.080786
33.900000,-1.945191
33.933333,-1.636732
33.966667,-1.203649
34.000000,-0.676095
34.033333,-0.062159
34.066667,0.634105
34.100000,1.380874
34.133333,2.093338
34.166667,2.636292
34.200000,2.861717
34.233333,2.667898
34.266667,2.051816
34.300000,1.126613
34.333333,0.092568
34.366667,-0.825594
34.400000,-1.446986
34.433333,-1.682774
34.466667,-1.551363
34.500000,-1.160064
34.533333,-0.662318
34.566667,-0.206817
34.600000,0.103193
