# Time_Sec,Amplitude
0.000000,-0.001013
0.033333,-0.036576
0.066667,-0.066767
0.100000,-0.087906
0.133333,-0.098794
0.166667,-0.100351
0.200000,-0.094481
0.233333,-0.083006
0.266667,-0.067264
0.300000,-0.048391
0.333333,-0.027849
0.366667,-0.007705
0.400000,0.009636
0.433333,0.022112
0.466667,0.028720
0.500000,0.029870
0.533333,0.027200
0.566667,0.022954
0.600000,0.019189
0.633333,0.017130
0.666667,0.016921
0.700000,0.017807
0.733333,0.018621
0.766667,0.018329
0.800000,0.016423
0.833333,0.013056
0.866667,0.008925
0.900000,0.004961
0.933333,0.001998
0.966667,0.000511
1.000000,0.000506
1.033333,0.001548
1.066667,0.002924
1.100000,0.003871
1.133333,0.003814
1.166667,0.002556
1.200000,0.000317
1.233333,-0.002367
1.266667,-0.004883
1.300000,-0.006764
1.333333,-0.007819
1.366667,-0.008120
1.400000,-0.007891
1.433333,-0.007376
1.466667,-0.006752
1.500000,-0.006097
1.533333,-0.005410
1.566667,-0.004641
1.600000,-0.003719
1.633333,-0.002568
1.666667,-0.001131
1.700000,0.000601
1.733333,0.002554
1.766667,0.004556
1.800000,0.006350
1.833333,0.007628
1.866667,0.008066
1.900000,0.007365
1.933333,0.005330
1.966667,0.001959
2.000000,-0.002470
2.033333,-0.007366
2.066667,-0.011902
2.100000,-0.015176
2.133333,-0.016447
2.166667,-0.015341
2.200000,-0.011955
2.233333,-0.006837
2.266667,-0.000847
2.300000,0.005034
2.333333,0.009921
2.366667,0.013205
2.400000,0.014661
2.433333,0.014456
2.466667,0.013059
2.500000,0.011056
2.533333,0.008958
2.566667,0.007052
2.600000,0.005359
2.633333,0.003696
2.666667,0.001800
2.700000,-0.000522
2.733333,-0.003246
2.766667,-0.006068
2.800000,-0.008475
2.833333,-0.009920
2.866667,-0.010037
2.900000,-0.008770
2.933333,-0.006392
2.966667,-0.003424
3.000000,-0.000490
3.033333,0.001834
3.066667,0.003155
3.100000,0.003327
3.133333,0.002472
3.166667,0.000937
3.200000,-0.000783
3.233333,-0.002173
3.266667,-0.002839
3.300000,-0.002612
3.333333,-0.001582
3.366667,-0.000059
3.400000,0.001536
3.433333,0.002778
3.466667,0.003353
3.500000,0.003143
3.533333,0.002264
3.566667,0.001051
3.600000,-0.000054
3.633333,-0.000669
3.666667,-0.000619
3.700000,0.000000
3.733333,0.000877
3.766667,0.001610
3.800000,0.001857
3.833333,0.001449
3.866667,0.000427
3.900000,-0.000980
3.933333,-0.002438
3.966667,-0.003607
4.000000,-0.004246
4.033333,-0.004265
4.066667,-0.003735
4.100000,-0.002834
4.133333,-0.001770
4.166667,-0.000714
4.200000,0.000234
4.233333,0.001053
4.266667,0.001763
4.300000,0.002401
4.333333,0.002997
4.366667,0.003575
4.400000,0.004140
4.433333,0.004660
4.466667,0.005048
4.500000,0.005159
4.533333,0.004836
4.566667,0.003979
4.600000,0.002610
4.633333,0.000899
4.666667,-0.000872
4.700000,-0.002402
4.733333,-0.003483
4.766667,-0.004077
4.800000,-0.004316
4.833333,-0.004430
4.866667,-0.004620
4.900000,-0.004960
4.933333,-0.005357
4.966667,-0.005588
5.000000,-0.005382
5.033333,-0.004525
5.066667,-0.002944
5.100000,-0.000762
5.133333,0.001716
5.166667,0.004070
5.200000,0.005874
5.233333,0.006799
5.266667,0.006697
5.300000,0.005637
5.333333,0.003877
5.366667,0.001801
5.400000,-0.000172
5.433333,-0.001691
5.466667,-0.002557
5.500000,-0.002775
5.533333,-0.002527
5.566667,-0.002089
5.600000,-0.001695
5.633333,-0.001428
5.666667,-0.001178
5.700000,-0.000699
5.733333,0.000252
5.766667,0.001754
5.800000,0.003606
5.833333,0.005339
5.866667,0.006365
5.900000,0.006215
5.933333,0.004752
5.966667,0.002261
6.000000,-0.000671
6.033333,-0.003390
6.066667,-0.005421
6.100000,-0.006580
6.133333,-0.006928
6.166667,-0.006640
6.200000,-0.005871
6.233333,-0.004691
6.266667,-0.003090
6.300000,-0.001063
6.333333,0.001286
6.366667,0.003668
6.400000,0.005627
6.433333,0.006671
6.466667,0.006477
6.500000,0.005058
6.533333,0.002809
6.566667,0.000389
6.600000,-0.001495
6.633333,-0.002326
6.666667,-0.001934
6.700000,-0.000537
6.733333,0.001345
6.766667,0.003062
6.800000,0.004021
6.833333,0.003853
6.866667,0.002499
6.900000,0.000227
6.933333,-0.002448
6.966667,-0.004903
7.000000,-0.006590
7.033333,-0.007195
7.066667,-0.006724
7.100000,-0.005465
7.133333,-0.003879
7.166667,-0.002432
7.200000,-0.001449
7.233333,-0.001018
7.266667,-0.000969
7.300000,-0.000973
7.333333,-0.000695
7.366667,0.000054
7.400000,0.001248
7.433333,0.002689
7.466667,0.004096
7.500000,0.005207
7.533333,0.005840
7.566667,0.005925
7.600000,0.005511
7.633333,0.004747
7.666667,0.003851
7.700000,0.003059
7.733333,0.002560
7.766667,0.002426
7.800000,0.002582
7.833333,0.002806
7.866667,0.002786
7.900000,0.002221
7.933333,0.000949
7.966667,-0.000972
8.000000,-0.003272
8.033333,-0.005560
8.066667,-0.007473
8.100000,-0.008777
8.133333,-0.009402
8.166667,-0.009403
8.200000,-0.008868
8.233333,-0.007849
8.266667,-0.006344
8.300000,-0.004360
8.333333,-0.002009
8.366667,0.000443
8.400000,0.002624
8.433333,0.004207
8.466667,0.005065
8.500000,0.005357
8.533333,0.005469
8.566667,0.005865
8.600000,0.006881
8.633333,0.008556
8.666667,0.010571
8.700000,0.012317
8.733333,0.013110
8.766667,0.012430
8.800000,0.010109
8.833333,0.006357
8.866667,0.001672
8.900000,-0.003325
8.933333,-0.008064
8.966667,-0.012138
9.000000,-0.015322
9.033333,-0.017507
9.066667,-0.018621
9.100000,-0.018589
9.133333,-0.017377
9.166667,-0.015049
9.200000,-0.011797
9.233333,-0.007895
9.266667,-0.003628
9.300000,0.000755
9.333333,0.005028
9.366667,0.008938
9.400000,0.012177
9.433333,0.014395
9.466667,0.015285
9.500000,0.014692
9.533333,0.012711
9.566667,0.009710
9.600000,0.006270
9.633333,0.003027
9.666667,0.000519
9.700000,-0.000913
9.733333,-0.001143
9.766667,-0.000247
9.800000,0.001515
9.833333,0.003720
9.866667,0.005828
9.900000,0.007272
9.933333,0.007569
9.966667,0.006420
10.000000,0.003803
10.033333,0.000008
10.066667,-0.004375
10.100000,-0.008593
10.133333,-0.011923
10.166667,-0.013867
10.200000,-0.014268
10.233333,-0.013299
10.266667,-0.011376
10.300000,-0.009013
10.333333,-0.006680
10.366667,-0.004690
10.400000,-0.003151
10.433333,-0.001988
10.466667,-0.001025
10.500000,-0.000077
10.533333,0.000980
10.566667,0.002192
10.600000,0.003547
10.633333,0.005009
10.666667,0.006525
10.700000,0.008009
10.733333,0.009303
10.766667,0.010158
10.800000,0.010278
10.833333,0.009438
10.866667,0.007616
10.900000,0.005056
10.933333,0.002216
10.966667,-0.000377
11.000000,-0.002290
11.033333,-0.003311
11.066667,-0.003491
11.100000,-0.003109
11.133333,-0.002559
11.166667,-0.002221
11.200000,-0.002358
11.233333,-0.003061
11.266667,-0.004240
11.300000,-0.005646
11.333333,-0.006931
11.366667,-0.007729
11.400000,-0.007751
11.433333,-0.006853
11.466667,-0.005071
11.500000,-0.002620
11.533333,0.000155
11.566667,0.002844
11.600000,0.005063
11.633333,0.006545
11.666667,0.007212
11.700000,0.007184
11.733333,0.006703
11.766667,0.006025
11.800000,0.005313
11.833333,0.004594
11.866667,0.003804
11.900000,0.002866
11.933333,0.001780
11.966667,0.000646
12.000000,-0.000371
12.033333,-0.001118
12.066667,-0.001537
12.100000,-0.001704
12.133333,-0.001814
12.166667,-0.002098
12.200000,-0.002710
12.233333,-0.003637
12.266667,-0.004678
12.300000,-0.005516
12.333333,-0.005830
12.366667,-0.005424
12.400000,-0.004301
12.433333,-0.002670
12.466667,-0.000871
12.500000,0.000725
12.533333,0.001830
12.566667,0.002307
12.600000,0.002198
12.633333,0.001680
12.666667,0.000985
12.700000,0.000319
12.733333,-0.000181
12.766667,-0.000439
12.800000,-0.000410
12.833333,-0.000062
12.866667,0.000616
12.900000,0.001579
12.933333,0.002693
12.966667,0.003731
13.000000,0.004430
13.033333,0.004572
13.066667,0.004066
13.100000,0.002987
13.133333,0.001548
13.166667,0.000040
13.200000,-0.001252
13.233333,-0.002115
13.266667,-0.002457
13.300000,-0.002322
13.333333,-0.001860
13.366667,-0.001273
13.400000,-0.000746
13.433333,-0.000393
13.466667,-0.000245
13.500000,-0.000267
13.533333,-0.000406
13.566667,-0.000634
13.600000,-0.000962
13.633333,-0.001412
13.666667,-0.001962
13.700000,-0.002506
13.733333,-0.002869
13.766667,-0.002866
13.800000,-0.002387
13.833333,-0.001450
13.866667,-0.000212
13.900000,0.001060
13.933333,0.002075
13.966667,0.002609
14.000000,0.002603
14.033333,0.002177
14.066667,0.001573
14.100000,0.001041
14.133333,0.000743
14.166667,0.000717
14.200000,0.000885
14.233333,0.001104
14.266667,0.001227
14.300000,0.001154
14.333333,0.000877
14.366667,0.000480
14.400000,0.000105
14.433333,-0.000112
14.466667,-0.000104
14.500000,0.000091
14.533333,0.000366
14.566667,0.000594
14.600000,0.000699
14.633333,0.000675
14.666667,0.000580
14.700000,0.000501
14.733333,0.000516
14.766667,0.000658
14.800000,0.000878
14.833333,0.001026
14.866667,0.000876
14.900000,0.000202
14.933333,-0.001103
14.966667,-0.002941
15.000000,-0.004984
15.033333,-0.006740
15.066667,-0.007698
15.100000,-0.007500
15.133333,-0.006088
15.166667,-0.003758
15.200000,-0.001088
15.233333,0.001249
15.266667,0.002707
15.300000,0.003036
15.333333,0.002350
15.366667,0.001063
15.400000,-0.000244
15.433333,-0.000998
15.466667,-0.000798
15.500000,0.000469
15.533333,0.002600
15.566667,0.005139
15.600000,0.007516
15.633333,0.009211
15.666667,0.009882
15.700000,0.009424
15.733333,0.007946
15.766667,0.005712
15.800000,0.003060
15.833333,0.000338
15.866667,-0.002157
15.900000,-0.004210
15.933333,-0.005691
15.966667,-0.006549
16.000000,-0.006801
16.033333,-0.006529
16.066667,-0.005866
16.100000,-0.004967
16.133333,-0.003960
16.166667,-0.002919
16.200000,-0.001858
16.233333,-0.000773
16.266667,0.000289
16.300000,0.001193
16.333333,0.001727
16.366667,0.001686
16.400000,0.000980
16.433333,-0.000300
16.466667,-0.001876
16.500000,-0.003343
16.533333,-0.004278
16.566667,-0.004357
16.600000,-0.003456
16.633333,-0.001680
16.666667,0.000661
16.700000,0.003108
16.733333,0.005155
16.766667,0.006366
16.800000,0.006492
16.833333,0.005544
16.866667,0.003760
16.900000,0.001521
16.933333,-0.000755
16.966667,-0.002692
17.000000,-0.003994
17.033333,-0.004445
17.066667,-0.003910
17.100000,-0.002355
17.133333,0.000098
17.166667,0.003108
17.200000,0.006136
17.233333,0.008551
17.266667,0.009795
17.300000,0.009533
17.333333,0.007736
17.366667,0.004686
17.400000,0.000915
17.433333,-0.002927
17.466667,-0.006218
17.500000,-0.008495
17.533333,-0.009521
17.566667,-0.009307
17.600000,-0.008082
17.633333,-0.006229
17.666667,-0.004179
17.700000,-0.002314
17.733333,-0.000875
17.766667,0.000061
17.800000,0.000567
17.833333,0.000786
17.866667,0.000853
17.900000,0.000833
17.933333,0.000718
17.966667,0.000484
18.000000,0.000163
18.033333,-0.000146
18.066667,-0.000313
18.100000,-0.000244
18.133333,0.000088
18.166667,0.000664
18.200000,0.001451
18.233333,0.002436
18.266667,0.003610
18.300000,0.004915
18.333333,0.006170
18.366667,0.007045
18.400000,0.007120
18.433333,0.006033
18.466667,0.003657
18.500000,0.000223
18.533333,-0.003674
18.566667,-0.007203
18.600000,-0.009523
18.633333,-0.010038
18.666667,-0.008577
18.700000,-0.005451
18.733333,-0.001362
18.766667,0.002791
18.800000,0.006135
18.833333,0.008014
18.866667,0.008110
18.900000,0.006480
18.933333,0.003521
18.966667,-0.000131
19.000000,-0.003728
19.033333,-0.006577
19.066667,-0.008179
19.100000,-0.008329
19.133333,-0.007121
19.166667,-0.004905
19.200000,-0.002183
19.233333,0.000506
19.266667,0.002707
19.300000,0.004131
19.333333,0.004693
19.366667,0.004492
19.400000,0.003759
19.433333,0.002777
19.466667,0.001807
19.500000,0.001024
19.533333,0.000487
19.566667,0.000163
19.600000,-0.000026
19.633333,-0.000141
19.666667,-0.000190
19.700000,-0.000139
19.733333,0.000043
19.766667,0.000344
19.800000,0.000688
19.833333,0.000961
19.866667,0.001052
19.900000,0.000902
19.933333,0.000538
19.966667,0.000078
20.000000,-0.000316
20.033333,-0.000514
20.066667,-0.000494
20.100000,-0.000367
20.133333,-0.000323
20.166667,-0.000526
20.200000,-0.001038
20.233333,-0.001782
20.266667,-0.002585
20.300000,-0.003247
20.333333,-0.003597
20.366667,-0.003535
20.400000,-0.003029
20.433333,-0.002106
20.466667,-0.000854
20.500000,0.000577
20.533333,0.001978
20.566667,0.003128
20.600000,0.003853
20.633333,0.004076
20.666667,0.003813
20.700000,0.003143
20.733333,0.002153
20.766667,0.000931
20.800000,-0.000430
20.833333,-0.001796
20.866667,-0.002984
20.900000,-0.003779
20.933333,-0.003991
20.966667,-0.003509
21.000000,-0.002340
21.033333,-0.000610
21.066667,0.001447
21.100000,0.003513
21.133333,0.005217
21.166667,0.006193
21.200000,0.006157
21.233333,0.005003
21.266667,0.002868
21.300000,0.000139
21.333333,-0.002611
21.366667,-0.004767
21.400000,-0.005839
21.433333,-0.005612
21.466667,-0.004200
21.500000,-0.002003
21.533333,0.000411
21.566667,0.002465
21.600000,0.003713
21.633333,0.003941
21.666667,0.003199
21.700000,0.001760
21.733333,0.000023
21.766667,-0.001608
21.800000,-0.002818
21.833333,-0.003430
21.866667,-0.003416
21.900000,-0.002883
21.933333,-0.002028
21.966667,-0.001089
22.000000,-0.000282
22.033333,0.000243
22.066667,0.000439
22.100000,0.000356
22.133333,0.000114
22.166667,-0.000127
22.200000,-0.000208
22.233333,-0.000012
22.266667,0.000492
22.300000,0.001208
22.333333,0.001936
22.366667,0.002440
22.400000,0.002539
22.433333,0.002180
22.466667,0.001449
22.500000,0.000531
22.533333,-0.000366
22.566667,-0.001077
22.600000,-0.001514
22.633333,-0.001664
22.666667,-0.001574
22.700000,-0.001303
22.733333,-0.000892
22.766667,-0.000349
22.800000,0.000338
22.833333,0.001146
22.866667,0.001992
22.900000,0.002726
22.933333,0.003181
22.966667,0.003229
23.000000,0.002842
23.033333,0.002098
23.066667,0.001146
23.100000,0.000136
23.133333,-0.000837
23.166667,-0.001745
23.200000,-0.002589
23.233333,-0.003348
23.266667,-0.003959
23.300000,-0.004337
23.333333,-0.004412
23.366667,-0.004167
23.400000,-0.003635
23.433333,-0.002867
23.466667,-0.001900
23.500000,-0.000748
23.533333,0.000576
23.566667,0.002007
23.600000,0.003392
23.633333,0.004496
23.666667,0.005056
23.700000,0.004875
23.733333,0.003920
23.766667,0.002373
23.800000,0.000608
23.833333,-0.000917
23.866667,-0.001801
23.900000,-0.001849
23.933333,-0.001149
23.966667,-0.000044
24.000000,0.000994
24.033333,0.001554
24.066667,0.001441
24.100000,0.000731
24.133333,-0.000281
24.166667,-0.001217
24.200000,-0.001766
24.233333,-0.001793
24.266667,-0.001376
24.300000,-0.000744
24.333333,-0.000183
24.366667,0.000074
24.400000,-0.000084
24.433333,-0.000608
24.466667,-0.001312
24.500000,-0.001926
24.533333,-0.002176
24.566667,-0.001879
24.600000,-0.001006
24.633333,0.000283
24.666667,0.001690
24.700000,0.002860
24.733333,0.003504
24.766667,0.003489
24.800000,0.002867
24.833333,0.001844
24.866667,0.000699
24.900000,-0.000315
24.933333,-0.001046
24.966667,-0.001460
25.000000,-0.001611
25.033333,-0.001577
25.066667,-0.001419
25.100000,-0.001161
25.133333,-0.000802
25.166667,-0.000333
25.200000,0.000228
25.233333,0.000813
25.266667,0.001297
25.300000,0.001539
25.333333,0.001428
25.366667,0.000937
25.400000,0.000140
25.433333,-0.000798
25.466667,-0.001678
25.500000,-0.002333
25.533333,-0.002675
25.566667,-0.002709
25.600000,-0.002499
25.633333,-0.002105
25.666667,-0.001534
25.700000,-0.000745
25.733333,0.000295
25.766667,0.001549
25.800000,0.002867
25.833333,0.004001
25.866667,0.004656
25.900000,0.004585
25.933333,0.003685
25.966667,0.002069
26.000000,0.000074
26.033333,-0.001815
26.066667,-0.003117
26.100000,-0.003507
26.133333,-0.002922
26.166667,-0.001576
26.200000,0.000122
26.233333,0.001693
26.266667,0.002724
26.300000,0.002974
26.333333,0.002414
26.366667,0.001227
26.400000,-0.000263
26.433333,-0.001686
26.466667,-0.002739
26.500000,-0.003251
26.533333,-0.003196
26.566667,-0.002674
26.600000,-0.001866
26.633333,-0.000995
26.666667,-0.000271
26.700000,0.000164
26.733333,0.000274
26.766667,0.000131
26.800000,-0.000123
26.833333,-0.000341
26.866667,-0.000421
26.900000,-0.000337
26.933333,-0.000128
26.966667,0.000139
27.000000,0.000407
27.033333,0.000662
27.066667,0.000943
27.100000,0.001320
27.133333,0.001845
27.166667,0.002495
27.200000,0.003145
27.233333,0.003594
27.266667,0.003640
27.300000,0.003153
27.333333,0.002137
27.366667,0.000753
27.400000,-0.000695
27.433333,-0.001832
27.466667,-0.002319
27.500000,-0.001981
27.533333,-0.000905
27.566667,0.000536
27.600000,0.001782
27.633333,0.002263
27.666667,0.001607
27.700000,-0.000216
27.733333,-0.002869
27.766667,-0.005733
27.800000,-0.008080
27.833333,-0.009278
27.866667,-0.008956
27.900000,-0.007100
27.933333,-0.004062
27.966667,-0.000472
28.000000,0.002921
28.033333,0.005453
28.066667,0.006718
28.100000,0.006663
28.133333,0.005563
28.166667,0.003916
28.200000,0.002275
28.233333,0.001094
28.266667,0.000610
28.300000,0.000799
28.333333,0.001408
28.366667,0.002046
28.400000,0.002314
28.433333,0.001933
28.466667,0.000852
28.500000,-0.000729
28.533333,-0.002400
28.566667,-0.003660
28.600000,-0.004075
28.633333,-0.003423
28.666667,-0.001786
28.700000,0.000456
28.733333,0.002711
28.766667,0.004347
28.800000,0.004882
28.833333,0.004143
28.866667,0.002310
28.900000,-0.000161
28.933333,-0.002691
28.966667,-0.004736
29.000000,-0.005901
29.033333,-0.006003
29.066667,-0.005080
29.100000,-0.003375
29.133333,-0.001280
29.166667,0.000746
29.200000,0.002294
29.233333,0.003115
29.266667,0.003179
29.300000,0.002665
29.333333,0.001887
29.366667,0.001183
29.400000,0.000811
29.433333,0.000868
29.466667,0.001266
29.500000,0.001773
29.533333,0.002097
29.566667,0.002003
29.600000,0.001388
29.633333,0.000302
29.666667,-0.001080
29.700000,-0.002515
29.733333,-0.003743
29.766667,-0.004546
29.800000,-0.004792
29.833333,-0.004462
29.866667,-0.003651
29.900000,-0.002538
29.933333,-0.001334
29.966667,-0.000226
30.000000,0.000670
30.033333,0.001331
30.066667,0.001802
30.100000,0.002164
30.133333,0.002481
30.166667,0.002774
30.200000,0.003017
30.233333,0.003153
30.266667,0.003131
30.300000,0.002929
30.333333,0.002568
30.366667,0.002110
30.400000,0.001637
30.433333,0.001223
30.466667,0.000908
30.500000,0.000686
30.533333,0.000514
30.566667,0.000333
30.600000,0.000093
30.633333,-0.000242
30.666667,-0.000685
30.700000,-0.001239
30.733333,-0.001882
30.766667,-0.002559
30.800000,-0.003180
30.833333,-0.003634
30.866667,-0.003817
30.900000,-0.003673
30.933333,-0.003222
30.966667,-0.002567
31.000000,-0.001863
31.033333,-0.001255
31.066667,-0.000817
31.100000,-0.000524
31.133333,-0.000273
31.166667,0.000040
31.200000,0.000447
31.233333,0.000865
31.266667,0.001127
31.300000,0.001068
31.333333,0.000620
31.366667,-0.000126
31.400000,-0.000913
31.433333,-0.001395
31.466667,-0.001250
31.500000,-0.000300
31.533333,0.001410
31.566667,0.003604
31.600000,0.005843
31.633333,0.007649
31.666667,0.008637
31.700000,0.008611
31.733333,0.007598
31.766667,0.005810
31.800000,0.003565
31.833333,0.001180
31.866667,-0.001106
31.900000,-0.003152
31.933333,-0.004878
31.966667,-0.006220
32.000000,-0.007097
32.033333,-0.007430
32.066667,-0.007177
32.100000,-0.006366
32.133333,-0.005113
32.166667,-0.003608
32.200000,-0.002068
32.233333,-0.000688
32.266667,0.000397
32.300000,0.001119
32.333333,0.001458
32.366667,0.001425
32.400000,0.001051
32.433333,0.000391
32.466667,-0.000470
32.500000,-0.001417
32.533333,-0.002301
32.566667,-0.002951
32.600000,-0.003181
32.633333,-0.002835
32.666667,-0.001824
32.700000,-0.000175
32.733333,0.001950
32.766667,0.004259
32.800000,0.006386
32.833333,0.007980
32.866667,0.008798
32.900000,0.008758
32.933333,0.007917
32.966667,0.006411
33.000000,0.004394
33.033333,0.002041
33.066667,-0.000423
33.100000,-0.002708
33.133333,-0.004534
33.166667,-0.005714
33.200000,-0.006201
33.233333,-0.006046
33.266667,-0.005340
33.300000,-0.004175
33.333333,-0.002650
33.366667,-0.000916
33.400000,0.000798
33.433333,0.002198
33.466667,0.002998
33.500000,0.003002
33.533333,0.002175
33.566667,0.000669
33.600000,-0.001202
33.633333,-0.003032
33.666667,-0.004424
33.700000,-0.005092
33.733333,-0.004944
33.766667,-0.004100
33.800000,-0.002823
33.833333,-0.001421
33.866667,-0.000133
33.900000,0.000915
33.933333,0.001696
33.966667,0.002236
34.000000,0.002569
34.033333,0.002739
34.066667,0.002805
34.100000,0.002842
34.133333,0.002927
34.166667,0.003106
34.200000,0.003364
34.233333,0.003619
34.266667,0.003741
34.300000,0.003595
34.333333,0.003089
34.366667,0.002209
34.400000,0.001012
34.433333,-0.000390
34.466667,-0.001861
34.500000,-0.003250
34.533333,-0.004396
34.566667,-0.005141
34.600000,-0.005365
34.633333,-0.005037
