Time_Sec,Amplitude
0.000000,-0.000192
0.033333,-0.000653
0.066667,-0.001055
0.100000,-0.001358
0.133333,-0.001538
0.166667,-0.001597
0.200000,-0.001551
0.233333,-0.001428
0.266667,-0.001261
0.300000,-0.001079
0.333333,-0.000903
0.366667,-0.000743
0.400000,-0.000596
0.433333,-0.000456
0.466667,-0.000312
0.500000,-0.000162
0.533333,-0.000011
0.566667,0.000131
0.600000,0.000247
0.633333,0.000323
0.666667,0.000354
0.700000,0.000343
0.733333,0.000307
0.766667,0.000269
0.800000,0.000249
0.833333,0.000258
0.866667,0.000295
0.900000,0.000351
0.933333,0.000409
0.966667,0.000453
1.000000,0.000473
1.033333,0.000465
1.066667,0.000436
1.100000,0.000392
1.133333,0.000343
1.166667,0.000291
1.200000,0.000235
1.233333,0.000168
1.266667,0.000084
1.300000,-0.000020
1.333333,-0.000135
1.366667,-0.000244
1.400000,-0.000325
1.433333,-0.000362
1.466667,-0.000347
1.500000,-0.000285
1.533333,-0.000191
1.566667,-0.000084
1.600000,0.000012
1.633333,0.000079
1.666667,0.000106
1.700000,0.000095
1.733333,0.000054
1.766667,0.000000
1.800000,-0.000052
1.833333,-0.000090
1.866667,-0.000111
1.900000,-0.000116
1.933333,-0.000112
1.966667,-0.000106
2.000000,-0.000106
2.033333,-0.000112
2.066667,-0.000117
2.100000,-0.000114
2.133333,-0.000095
2.166667,-0.000057
2.200000,-0.000003
2.233333,0.000059
2.266667,0.000113
2.300000,0.000146
2.333333,0.000151
2.366667,0.000126
2.400000,0.000081
2.433333,0.000030
2.466667,-0.000014
2.500000,-0.000038
2.533333,-0.000039
2.566667,-0.000021
2.600000,0.000006
2.633333,0.000030
2.666667,0.000040
2.700000,0.000033
2.733333,0.000015
2.766667,-0.000005
2.800000,-0.000016
2.833333,-0.000013
2.866667,0.000005
2.900000,0.000030
2.933333,0.000052
2.966667,0.000059
3.000000,0.000046
3.033333,0.000014
3.066667,-0.000025
3.100000,-0.000058
3.133333,-0.000070
3.166667,-0.000056
3.200000,-0.000018
3.233333,0.000031
3.266667,0.000074
3.300000,0.000095
3.333333,0.000082
3.366667,0.000037
3.400000,-0.000027
3.433333,-0.000092
3.466667,-0.000137
3.500000,-0.000149
3.533333,-0.000125
3.566667,-0.000072
3.600000,-0.000006
3.633333,0.000056
3.666667,0.000098
3.700000,0.000112
3.733333,0.000100
3.766667,0.000070
3.800000,0.000035
3.833333,0.000009
3.866667,-0.000001
3.900000,0.000004
3.933333,0.000018
3.966667,0.000029
4.000000,0.000030
4.033333,0.000017
4.066667,-0.000007
4.100000,-0.000033
4.133333,-0.000055
4.166667,-0.000064
4.200000,-0.000061
4.233333,-0.000050
4.266667,-0.000037
4.300000,-0.000031
4.333333,-0.000037
4.366667,-0.000053
4.400000,-0.000070
4.433333,-0.000080
4.466667,-0.000073
4.500000,-0.000046
4.533333,-0.000000
4.566667,0.000055
4.600000,0.000105
4.633333,0.000139
4.666667,0.000147
4.700000,0.000127
4.733333,0.000087
4.766667,0.000038
4.800000,-0.000007
4.833333,-0.000037
4.866667,-0.000047
4.900000,-0.000039
4.933333,-0.000020
4.966667,-0.000002
5.000000,0.000004
5.033333,-0.000005
5.066667,-0.000025
5.100000,-0.000048
5.133333,-0.000061
5.166667,-0.000058
5.200000,-0.000036
5.233333,-0.000001
5.266667,0.000038
5.300000,0.000066
5.333333,0.000075
5.366667,0.000062
5.400000,0.000033
5.433333,0.000000
5.466667,-0.000025
5.500000,-0.000035
5.533333,-0.000026
5.566667,-0.000004
5.600000,0.000020
5.633333,0.000035
5.666667,0.000033
5.700000,0.000012
5.733333,-0.000020
5.766667,-0.000054
5.800000,-0.000077
5.833333,-0.000082
5.866667,-0.000067
5.900000,-0.000039
5.933333,-0.000008
5.966667,0.000015
6.000000,0.000022
6.033333,0.000012
6.066667,-0.000008
6.100000,-0.000026
6.133333,-0.000032
6.166667,-0.000019
6.200000,0.000012
6.233333,0.000054
6.266667,0.000093
6.300000,0.000117
6.333333,0.000115
6.366667,0.000088
6.400000,0.000042
6.433333,-0.000010
6.466667,-0.000053
6.500000,-0.000077
6.533333,-0.000080
6.566667,-0.000063
6.600000,-0.000037
6.633333,-0.000012
6.666667,0.000005
6.700000,0.000011
6.733333,0.000008
6.766667,0.000002
6.800000,0.000001
6.833333,0.000007
6.866667,0.000019
6.900000,0.000033
6.933333,0.000041
6.966667,0.000036
7.000000,0.000016
7.033333,-0.000016
7.066667,-0.000050
7.100000,-0.000076
7.133333,-0.000083
7.166667,-0.000068
7.200000,-0.000035
7.233333,0.000008
7.266667,0.000047
7.300000,0.000070
7.333333,0.000070
7.366667,0.000048
7.400000,0.000013
7.433333,-0.000023
7.466667,-0.000047
7.500000,-0.000052
7.533333,-0.000038
7.566667,-0.000012
7.600000,0.000016
7.633333,0.000033
7.666667,0.000034
7.700000,0.000020
7.733333,-0.000001
7.766667,-0.000019
7.800000,-0.000022
7.833333,-0.000009
7.866667,0.000020
7.900000,0.000054
7.933333,0.000080
7.966667,0.000089
8.000000,0.000073
8.033333,0.000034
8.066667,-0.000016
8.100000,-0.000064
8.133333,-0.000095
8.166667,-0.000101
8.200000,-0.000083
8.233333,-0.000047
8.266667,-0.000008
8.300000,0.000022
8.333333,0.000032
8.366667,0.000023
8.400000,0.000000
8.433333,-0.000023
8.466667,-0.000037
8.500000,-0.000031
8.533333,-0.000008
8.566667,0.000026
8.600000,0.000058
8.633333,0.000074
8.666667,0.000065
8.700000,0.000034
8.733333,-0.000012
8.766667,-0.000057
8.800000,-0.000086
8.833333,-0.000090
8.866667,-0.000069
8.900000,-0.000027
8.933333,0.000020
8.966667,0.000060
9.000000,0.000082
9.033333,0.000081
9.066667,0.000062
9.100000,0.000036
9.133333,0.000011
9.166667,-0.000002
9.200000,-0.000002
9.233333,0.000007
9.266667,0.000019
9.300000,0.000023
9.333333,0.000012
9.366667,-0.000011
9.400000,-0.000040
9.433333,-0.000064
9.466667,-0.000073
9.500000,-0.000062
9.533333,-0.000034
9.566667,0.000003
9.600000,0.000036
9.633333,0.000053
9.666667,0.000048
9.700000,0.000023
9.733333,-0.000014
9.766667,-0.000048
9.800000,-0.000068
9.833333,-0.000067
9.866667,-0.000045
9.900000,-0.000009
9.933333,0.000029
9.966667,0.000055
10.000000,0.000062
10.033333,0.000048
10.066667,0.000020
10.100000,-0.000009
10.133333,-0.000029
10.166667,-0.000031
10.200000,-0.000016
10.233333,0.000011
10.266667,0.000038
10.300000,0.000054
10.333333,0.000052
10.366667,0.000030
10.400000,-0.000003
10.433333,-0.000036
10.466667,-0.000057
10.500000,-0.000059
10.533333,-0.000041
10.566667,-0.000010
10.600000,0.000023
10.633333,0.000045
10.666667,0.000049
10.700000,0.000034
10.733333,0.000005
10.766667,-0.000025
10.800000,-0.000045
10.833333,-0.000048
10.866667,-0.000032
10.900000,-0.000002
10.933333,0.000032
10.966667,0.000058
11.000000,0.000065
11.033333,0.000052
11.066667,0.000021
11.100000,-0.000015
11.133333,-0.000046
11.166667,-0.000061
11.200000,-0.000057
11.233333,-0.000039
11.266667,-0.000014
11.300000,0.000006
11.333333,0.000013
11.366667,0.000006
11.400000,-0.000011
11.433333,-0.000028
11.466667,-0.000036
11.500000,-0.000029
11.533333,-0.000007
11.566667,0.000021
11.600000,0.000048
11.633333,0.000062
11.666667,0.000058
11.700000,0.000039
11.733333,0.000011
11.766667,-0.000012
11.800000,-0.000023
11.833333,-0.000016
11.866667,0.000007
11.900000,0.000035
11.933333,0.000057
11.966667,0.000062
12.000000,0.000046
12.033333,0.000011
12.066667,-0.000030
12.100000,-0.000064
12.133333,-0.000080
12.166667,-0.000071
12.200000,-0.000041
12.233333,-0.000002
12.266667,0.000033
12.300000,0.000049
12.333333,0.000037
12.366667,-0.000001
12.400000,-0.000052
12.433333,-0.000099
12.466667,-0.000127
12.500000,-0.000124
12.533333,-0.000089
12.566667,-0.000030
12.600000,0.000036
12.633333,0.000093
12.666667,0.000125
12.700000,0.000128
12.733333,0.000106
12.766667,0.000067
12.800000,0.000025
12.833333,-0.000008
12.866667,-0.000027
12.900000,-0.000030
12.933333,-0.000021
12.966667,-0.000009
13.000000,0.000002
13.033333,0.000009
13.066667,0.000013
13.100000,0.000016
13.133333,0.000022
13.166667,0.000029
13.200000,0.000036
13.233333,0.000036
13.266667,0.000027
13.300000,0.000005
13.333333,-0.000027
13.366667,-0.000062
13.400000,-0.000088
13.433333,-0.000098
13.466667,-0.000086
13.500000,-0.000052
13.533333,-0.000005
13.566667,0.000044
13.600000,0.000081
13.633333,0.000094
13.666667,0.000079
13.700000,0.000039
13.733333,-0.000014
13.766667,-0.000063
13.800000,-0.000094
13.833333,-0.000099
13.866667,-0.000075
13.900000,-0.000032
13.933333,0.000016
13.966667,0.000053
14.000000,0.000069
14.033333,0.000060
14.066667,0.000033
14.100000,-0.000001
14.133333,-0.000028
14.166667,-0.000038
14.200000,-0.000029
14.233333,-0.000003
14.266667,0.000028
14.300000,0.000054
14.333333,0.000063
14.366667,0.000053
14.400000,0.000029
14.433333,-0.000002
14.466667,-0.000028
14.500000,-0.000041
14.533333,-0.000037
14.566667,-0.000020
14.600000,0.000002
14.633333,0.000017
14.666667,0.000018
14.700000,0.000003
14.733333,-0.000022
14.766667,-0.000046
14.800000,-0.000059
14.833333,-0.000053
14.866667,-0.000028
14.900000,0.000011
14.933333,0.000051
14.966667,0.000080
15.000000,0.000089
15.033333,0.000075
15.066667,0.000044
15.100000,0.000008
15.133333,-0.000022
15.166667,-0.000037
15.200000,-0.000033
15.233333,-0.000017
15.266667,0.000003
15.300000,0.000015
15.333333,0.000011
15.366667,-0.000010
15.400000,-0.000041
15.433333,-0.000071
15.466667,-0.000090
15.500000,-0.000088
15.533333,-0.000066
15.566667,-0.000029
15.600000,0.000013
15.633333,0.000048
15.666667,0.000065
15.700000,0.000062
15.733333,0.000042
15.766667,0.000016
15.800000,-0.000006
15.833333,-0.000015
15.866667,-0.000008
15.900000,0.000012
15.933333,0.000038
15.966667,0.000057
16.000000,0.000061
16.033333,0.000049
16.066667,0.000024
16.100000,-0.000006
16.133333,-0.000030
16.166667,-0.000041
16.200000,-0.000035
16.233333,-0.000016
16.266667,0.000007
16.300000,0.000022
16.333333,0.000022
16.366667,0.000004
16.400000,-0.000025
16.433333,-0.000055
16.466667,-0.000073
16.500000,-0.000071
16.533333,-0.000047
16.566667,-0.000008
16.600000,0.000034
16.633333,0.000065
16.666667,0.000076
16.700000,0.000064
16.733333,0.000036
16.766667,0.000001
16.800000,-0.000027
16.833333,-0.000038
16.866667,-0.000032
16.900000,-0.000012
16.933333,0.000011
16.966667,0.000026
17.000000,0.000025
17.033333,0.000005
17.066667,-0.000026
17.100000,-0.000057
17.133333,-0.000078
17.166667,-0.000078
17.200000,-0.000056
17.233333,-0.000018
17.266667,0.000027
17.300000,0.000064
17.333333,0.000083
17.366667,0.000079
17.400000,0.000055
17.433333,0.000020
17.466667,-0.000014
17.500000,-0.000036
17.533333,-0.000039
17.566667,-0.000025
17.600000,-0.000001
17.633333,0.000023
17.666667,0.000037
17.700000,0.000036
17.733333,0.000023
17.766667,0.000005
17.800000,-0.000009
17.833333,-0.000012
17.866667,-0.000003
17.900000,0.000014
17.933333,0.000029
17.966667,0.000034
18.000000,0.000024
18.033333,-0.000001
18.066667,-0.000033
18.100000,-0.000061
18.133333,-0.000074
18.166667,-0.000066
18.200000,-0.000040
18.233333,-0.000002
18.266667,0.000035
18.300000,0.000058
18.333333,0.000059
18.366667,0.000038
18.400000,0.000002
18.433333,-0.000035
18.466667,-0.000062
18.500000,-0.000068
18.533333,-0.000053
18.566667,-0.000022
18.600000,0.000014
18.633333,0.000042
18.666667,0.000053
18.700000,0.000046
18.733333,0.000024
18.766667,-0.000004
18.800000,-0.000026
18.833333,-0.000036
18.866667,-0.000030
18.900000,-0.000012
18.933333,0.000010
18.966667,0.000028
19.000000,0.000033
19.033333,0.000024
19.066667,0.000006
19.100000,-0.000013
19.133333,-0.000023
19.166667,-0.000019
19.200000,-0.000002
19.233333,0.000024
19.266667,0.000048
19.300000,0.000059
19.333333,0.000053
19.366667,0.000029
19.400000,-0.000005
19.433333,-0.000038
19.466667,-0.000060
19.500000,-0.000063
19.533333,-0.000046
19.566667,-0.000017
19.600000,0.000015
19.633333,0.000036
19.666667,0.000040
19.700000,0.000025
19.733333,-0.000001
19.766667,-0.000028
19.800000,-0.000043
19.833333,-0.000041
19.866667,-0.000021
19.900000,0.000010
19.933333,0.000042
19.966667,0.000061
20.000000,0.000061
20.033333,0.000041
20.066667,0.000007
20.100000,-0.000028
20.133333,-0.000053
20.166667,-0.000060
20.200000,-0.000049
20.233333,-0.000023
20.266667,0.000005
20.300000,0.000025
20.333333,0.000029
20.366667,0.000015
20.400000,-0.000011
20.433333,-0.000037
20.466667,-0.000053
20.500000,-0.000053
20.533333,-0.000033
20.566667,-0.000001
20.600000,0.000033
20.633333,0.000058
20.666667,0.000064
20.700000,0.000051
20.733333,0.000023
20.766667,-0.000007
20.800000,-0.000030
20.833333,-0.000037
20.866667,-0.000026
20.900000,-0.000004
20.933333,0.000021
20.966667,0.000039
21.000000,0.000042
21.033333,0.000031
21.066667,0.000010
21.100000,-0.000011
21.133333,-0.000024
21.166667,-0.000022
21.200000,-0.000007
21.233333,0.000017
21.266667,0.000039
21.300000,0.000048
21.333333,0.000040
21.366667,0.000016
21.400000,-0.000019
21.433333,-0.000051
21.466667,-0.000071
21.500000,-0.000071
21.533333,-0.000053
21.566667,-0.000022
21.600000,0.000011
21.633333,0.000035
21.666667,0.000042
21.700000,0.000030
21.733333,0.000008
21.766667,-0.000015
21.800000,-0.000030
21.833333,-0.000029
21.866667,-0.000014
21.900000,0.000010
21.933333,0.000030
21.966667,0.000036
22.000000,0.000024
22.033333,-0.000005
22.066667,-0.000040
22.100000,-0.000068
22.133333,-0.000076
22.166667,-0.000059
22.200000,-0.000020
22.233333,0.000031
22.266667,0.000077
22.300000,0.000104
22.333333,0.000101
22.366667,0.000069
22.400000,0.000020
22.433333,-0.000031
22.466667,-0.000067
22.500000,-0.000077
22.533333,-0.000059
22.566667,-0.000018
22.600000,0.000031
22.633333,0.000070
22.666667,0.000087
22.700000,0.000076
22.733333,0.000041
22.766667,-0.000006
22.800000,-0.000051
22.833333,-0.000081
22.866667,-0.000090
22.900000,-0.000079
22.933333,-0.000054
22.966667,-0.000025
23.000000,-0.000002
23.033333,0.000012
23.066667,0.000018
23.100000,0.000020
23.133333,0.000024
23.166667,0.000033
23.200000,0.000047
23.233333,0.000061
23.266667,0.000070
23.300000,0.000065
23.333333,0.000046
23.366667,0.000013
23.400000,-0.000023
23.433333,-0.000054
23.466667,-0.000069
23.500000,-0.000065
23.533333,-0.000043
23.566667,-0.000011
23.600000,0.000020
23.633333,0.000037
23.666667,0.000034
23.700000,0.000011
23.733333,-0.000024
23.766667,-0.000059
23.800000,-0.000080
23.833333,-0.000082
23.866667,-0.000062
23.900000,-0.000027
23.933333,0.000011
23.966667,0.000040
24.000000,0.000050
24.033333,0.000040
24.066667,0.000016
24.100000,-0.000012
24.133333,-0.000033
24.166667,-0.000036
24.200000,-0.000020
24.233333,0.000013
24.266667,0.000051
24.300000,0.000083
24.333333,0.000099
24.366667,0.000095
24.400000,0.000073
24.433333,0.000042
24.466667,0.000012
24.500000,-0.000007
24.533333,-0.000013
24.566667,-0.000008
24.600000,0.000001
24.633333,0.000004
24.666667,-0.000006
24.700000,-0.000028
24.733333,-0.000056
24.766667,-0.000081
24.800000,-0.000092
24.833333,-0.000083
24.866667,-0.000055
24.900000,-0.000015
24.933333,0.000025
24.966667,0.000052
25.000000,0.000057
25.033333,0.000039
25.066667,0.000005
25.100000,-0.000034
25.133333,-0.000063
25.166667,-0.000074
25.200000,-0.000064
25.233333,-0.000035
25.266667,0.000001
25.300000,0.000035
25.333333,0.000056
25.366667,0.000063
25.400000,0.000060
25.433333,0.000053
25.466667,0.000049
25.500000,0.000052
25.533333,0.000060
25.566667,0.000067
25.600000,0.000066
25.633333,0.000049
25.666667,0.000016
25.700000,-0.000029
25.733333,-0.000076
25.766667,-0.000114
25.800000,-0.000130
25.833333,-0.000122
25.866667,-0.000089
25.900000,-0.000042
25.933333,0.000006
25.966667,0.000043
26.000000,0.000060
26.033333,0.000055
26.066667,0.000036
26.100000,0.000010
26.133333,-0.000011
26.166667,-0.000021
26.200000,-0.000018
26.233333,-0.000007
26.266667,0.000005
26.300000,0.000010
26.333333,0.000001
26.366667,-0.000018
26.400000,-0.000042
26.433333,-0.000057
26.466667,-0.000055
26.500000,-0.000030
26.533333,0.000015
26.566667,0.000069
26.600000,0.000118
26.633333,0.000147
26.666667,0.000145
26.700000,0.000113
26.733333,0.000060
26.766667,0.000000
26.800000,-0.000049
26.833333,-0.000076
26.866667,-0.000077
26.900000,-0.000056
26.933333,-0.000025
26.966667,0.000003
27.000000,0.000015
27.033333,0.000010
27.066667,-0.000010
27.100000,-0.000033
27.133333,-0.000048
27.166667,-0.000049
27.200000,-0.000034
27.233333,-0.000007
27.266667,0.000020
27.300000,0.000035
27.333333,0.000031
27.366667,0.000007
27.400000,-0.000031
27.433333,-0.000070
27.466667,-0.000097
27.500000,-0.000103
27.533333,-0.000085
27.566667,-0.000049
27.600000,-0.000006
27.633333,0.000032
27.666667,0.000055
27.700000,0.000060
27.733333,0.000050
27.766667,0.000034
27.800000,0.000022
27.833333,0.000020
27.866667,0.000031
27.900000,0.000049
27.933333,0.000067
27.966667,0.000074
28.000000,0.000065
28.033333,0.000038
28.066667,0.000002
28.100000,-0.000033
28.133333,-0.000054
28.166667,-0.000055
28.200000,-0.000034
28.233333,-0.000001
28.266667,0.000034
28.300000,0.000055
28.333333,0.000055
28.366667,0.000033
28.400000,-0.000001
28.433333,-0.000034
28.466667,-0.000054
28.500000,-0.000054
28.533333,-0.000034
28.566667,-0.000003
28.600000,0.000026
28.633333,0.000041
28.666667,0.000036
28.700000,0.000012
28.733333,-0.000023
28.766667,-0.000056
28.800000,-0.000075
28.833333,-0.000075
28.866667,-0.000054
28.900000,-0.000022
28.933333,0.000009
28.966667,0.000029
29.000000,0.000029
29.033333,0.000011
29.066667,-0.000018
29.100000,-0.000045
29.133333,-0.000059
29.166667,-0.000053
29.200000,-0.000029
29.233333,0.000008
29.266667,0.000044
29.300000,0.000068
29.333333,0.000072
29.366667,0.000057
29.400000,0.000029
29.433333,0.000001
29.466667,-0.000017
29.500000,-0.000018
29.533333,-0.000003
29.566667,0.000024
29.600000,0.000052
29.633333,0.000069
29.666667,0.000069
29.700000,0.000051
29.733333,0.000021
29.766667,-0.000013
29.800000,-0.000039
29.833333,-0.000051
29.866667,-0.000047
29.900000,-0.000031
29.933333,-0.000011
29.966667,0.000003
30.000000,0.000006
30.033333,-0.000002
30.066667,-0.000016
30.100000,-0.000027
30.133333,-0.000030
30.166667,-0.000021
30.200000,-0.000003
30.233333,0.000017
30.266667,0.000030
30.300000,0.000029
30.333333,0.000012
30.366667,-0.000017
30.400000,-0.000047
30.433333,-0.000067
30.466667,-0.000067
30.500000,-0.000046
30.533333,-0.000008
30.566667,0.000037
30.600000,0.000075
30.633333,0.000094
30.666667,0.000087
30.700000,0.000056
30.733333,0.000012
30.766667,-0.000034
30.800000,-0.000066
30.833333,-0.000076
30.866667,-0.000064
30.900000,-0.000035
30.933333,-0.000001
30.966667,0.000025
31.000000,0.000035
31.033333,0.000027
31.066667,0.000007
31.100000,-0.000013
31.133333,-0.000023
31.166667,-0.000017
31.200000,0.000004
31.233333,0.000035
31.266667,0.000064
31.300000,0.000080
31.333333,0.000076
31.366667,0.000050
31.400000,0.000011
31.433333,-0.000029
31.466667,-0.000059
31.500000,-0.000070
31.533333,-0.000062
31.566667,-0.000040
31.600000,-0.000014
31.633333,0.000005
31.666667,0.000009
31.700000,-0.000004
31.733333,-0.000027
31.766667,-0.000051
31.800000,-0.000066
31.833333,-0.000063
31.866667,-0.000042
31.900000,-0.000009
31.933333,0.000028
31.966667,0.000057
32.000000,0.000069
32.033333,0.000063
32.066667,0.000045
32.100000,0.000022
32.133333,0.000007
32.166667,0.000004
32.200000,0.000015
32.233333,0.000035
32.266667,0.000052
32.300000,0.000057
32.333333,0.000044
32.366667,0.000014
32.400000,-0.000024
32.433333,-0.000058
32.466667,-0.000075
32.500000,-0.000068
32.533333,-0.000039
32.566667,0.000004
32.600000,0.000046
32.633333,0.000072
32.666667,0.000073
32.700000,0.000046
32.733333,0.000001
32.766667,-0.000050
32.800000,-0.000089
32.833333,-0.000107
32.866667,-0.000099
32.900000,-0.000069
32.933333,-0.000029
32.966667,0.000006
33.000000,0.000027
33.033333,0.000030
33.066667,0.000020
33.100000,0.000006
33.133333,-0.000001
33.166667,0.000004
33.200000,0.000021
33.233333,0.000043
33.266667,0.000060
33.300000,0.000062
33.333333,0.000045
33.366667,0.000012
33.400000,-0.000029
33.433333,-0.000062
33.466667,-0.000075
33.500000,-0.000061
33.533333,-0.000022
33.566667,0.000032
33.600000,0.000085
33.633333,0.000121
33.666667,0.000126
33.700000,0.000099
33.733333,0.000046
33.766667,-0.000018
33.800000,-0.000075
33.833333,-0.000111
33.866667,-0.000118
33.900000,-0.000099
33.933333,-0.000063
33.966667,-0.000024
34.000000,0.000004
34.033333,0.000016
34.066667,0.000012
34.100000,-0.000001
34.133333,-0.000014
34.166667,-0.000020
34.200000,-0.000015
34.233333,-0.000002
34.266667,0.000016
34.300000,0.000030
34.333333,0.000035
34.366667,0.000028
34.400000,0.000015
34.433333,0.000001
34.466667,-0.000006
34.500000,-0.000001
34.533333,0.000015
34.566667,0.000036
34.600000,0.000054
34.633333,0.000059
