# Time_Sec,Amplitude
0.000000,0.000113
0.033333,-0.000961
0.066667,-0.001863
0.100000,-0.002481
0.133333,-0.002769
0.166667,-0.002739
0.200000,-0.002435
0.233333,-0.001910
0.266667,-0.001198
0.300000,-0.000299
0.333333,0.000792
0.366667,0.002018
0.400000,0.003196
0.433333,0.004015
0.466667,0.004137
0.500000,0.003347
0.533333,0.001681
0.566667,-0.000546
0.600000,-0.002816
0.633333,-0.004580
0.666667,-0.005433
0.700000,-0.005240
0.733333,-0.004146
0.766667,-0.002499
0.800000,-0.000725
0.833333,0.000792
0.866667,0.001789
0.900000,0.002145
0.933333,0.001872
0.966667,0.001101
1.000000,0.000082
1.033333,-0.000862
1.066667,-0.001427
1.100000,-0.001439
1.133333,-0.000927
1.166667,-0.000102
1.200000,0.000727
1.233333,0.001283
1.266667,0.001415
1.300000,0.001153
1.333333,0.000683
1.366667,0.000285
1.400000,0.000236
1.433333,0.000744
1.466667,0.001873
1.500000,0.003486
1.533333,0.005224
1.566667,0.006564
1.600000,0.006972
1.633333,0.006097
1.666667,0.003942
1.700000,0.000893
1.733333,-0.002404
1.766667,-0.005268
1.800000,-0.007206
1.833333,-0.008030
1.866667,-0.007847
1.900000,-0.006941
1.933333,-0.005619
1.966667,-0.004107
2.000000,-0.002546
2.033333,-0.001053
2.066667,0.000214
2.100000,0.001062
2.133333,0.001347
2.166667,0.001084
2.200000,0.000491
2.233333,-0.000066
2.266667,-0.000230
2.300000,0.000178
2.333333,0.001068
2.366667,0.002125
2.400000,0.002973
2.433333,0.003345
2.466667,0.003205
2.500000,0.002758
2.533333,0.002339
2.566667,0.002258
2.600000,0.002649
2.633333,0.003409
2.666667,0.004230
2.700000,0.004708
2.733333,0.004483
2.766667,0.003354
2.800000,0.001349
2.833333,-0.001271
2.866667,-0.004065
2.900000,-0.006533
2.933333,-0.008238
2.966667,-0.008917
3.000000,-0.008510
3.033333,-0.007126
3.066667,-0.004986
3.100000,-0.002373
3.133333,0.000366
3.166667,0.002820
3.200000,0.004562
3.233333,0.005253
3.266667,0.004752
3.300000,0.003183
3.333333,0.000921
3.366667,-0.001477
3.400000,-0.003395
3.433333,-0.004321
3.466667,-0.003985
3.500000,-0.002459
3.533333,-0.000149
3.566667,0.002310
3.600000,0.004247
3.633333,0.005188
3.666667,0.005024
3.700000,0.004044
3.733333,0.002801
3.766667,0.001887
3.800000,0.001689
3.833333,0.002252
3.866667,0.003254
3.900000,0.004141
3.933333,0.004331
3.966667,0.003439
4.000000,0.001422
4.033333,-0.001400
4.066667,-0.004463
4.100000,-0.007135
4.133333,-0.008918
4.166667,-0.009571
4.200000,-0.009154
4.233333,-0.007948
4.266667,-0.006316
4.300000,-0.004532
4.333333,-0.002680
4.366667,-0.000679
4.400000,0.001580
4.433333,0.004040
4.466667,0.006383
4.500000,0.008098
4.533333,0.008691
4.566667,0.007931
4.600000,0.005979
4.633333,0.003369
4.666667,0.000825
4.700000,-0.000991
4.733333,-0.001713
4.766667,-0.001372
4.800000,-0.000335
4.833333,0.000868
4.866667,0.001748
4.900000,0.001996
4.933333,0.001526
4.966667,0.000448
5.000000,-0.000982
5.033333,-0.002423
5.066667,-0.003535
5.100000,-0.004076
5.133333,-0.003991
5.166667,-0.003427
5.200000,-0.002674
5.233333,-0.002044
5.266667,-0.001748
5.300000,-0.001834
5.333333,-0.002178
5.366667,-0.002535
5.400000,-0.002621
5.433333,-0.002222
5.466667,-0.001269
5.500000,0.000141
5.533333,0.001790
5.566667,0.003419
5.600000,0.004792
5.633333,0.005748
5.666667,0.006209
5.700000,0.006162
5.733333,0.005628
5.766667,0.004643
5.800000,0.003276
5.833333,0.001652
5.866667,-0.000045
5.900000,-0.001608
5.933333,-0.002852
5.966667,-0.003658
6.000000,-0.003978
6.033333,-0.003826
6.066667,-0.003285
6.100000,-0.002500
6.133333,-0.001671
6.166667,-0.001008
6.200000,-0.000674
6.233333,-0.000728
6.266667,-0.001092
6.300000,-0.001573
6.333333,-0.001932
6.366667,-0.001977
6.400000,-0.001642
6.433333,-0.000987
6.466667,-0.000136
6.500000,0.000805
6.533333,0.001765
6.566667,0.002676
6.600000,0.003431
6.633333,0.003877
6.666667,0.003870
6.700000,0.003339
6.733333,0.002346
6.766667,0.001101
6.800000,-0.000086
6.833333,-0.000902
6.866667,-0.001149
6.900000,-0.000848
6.933333,-0.000254
6.966667,0.000232
7.000000,0.000229
7.033333,-0.000442
7.066667,-0.001641
7.100000,-0.002943
7.133333,-0.003803
7.166667,-0.003811
7.200000,-0.002894
7.233333,-0.001346
7.266667,0.000312
7.300000,0.001591
7.333333,0.002233
7.366667,0.002277
7.400000,0.001973
7.433333,0.001606
7.466667,0.001330
7.500000,0.001119
7.533333,0.000838
7.566667,0.000390
7.600000,-0.000198
7.633333,-0.000792
7.666667,-0.001253
7.700000,-0.001528
7.733333,-0.001656
7.766667,-0.001703
7.800000,-0.001672
7.833333,-0.001481
7.866667,-0.001009
7.900000,-0.000197
7.933333,0.000888
7.966667,0.002058
8.000000,0.003069
8.033333,0.003701
8.066667,0.003798
8.100000,0.003283
8.133333,0.002153
8.166667,0.000504
8.200000,-0.001445
8.233333,-0.003352
8.266667,-0.004803
8.300000,-0.005423
8.333333,-0.004995
8.366667,-0.003580
8.400000,-0.001525
8.433333,0.000642
8.466667,0.002405
8.500000,0.003451
8.533333,0.003746
8.566667,0.003489
8.600000,0.002966
8.633333,0.002420
8.666667,0.001982
8.700000,0.001678
8.733333,0.001460
8.766667,0.001235
8.800000,0.000876
8.833333,0.000239
8.866667,-0.000783
8.900000,-0.002185
8.933333,-0.003784
8.966667,-0.005205
9.000000,-0.005983
9.033333,-0.005728
9.066667,-0.004311
9.100000,-0.001957
9.133333,0.000800
9.166667,0.003280
9.200000,0.004886
9.233333,0.005286
9.266667,0.004491
9.300000,0.002818
9.333333,0.000765
9.366667,-0.001132
9.400000,-0.002434
9.433333,-0.002891
9.466667,-0.002496
9.500000,-0.001481
9.533333,-0.000247
9.566667,0.000764
9.600000,0.001232
9.633333,0.001075
9.666667,0.000480
9.700000,-0.000183
9.733333,-0.000529
9.766667,-0.000335
9.800000,0.000371
9.833333,0.001339
9.866667,0.002213
9.900000,0.002664
9.933333,0.002504
9.966667,0.001737
10.000000,0.000551
10.033333,-0.000756
10.066667,-0.001885
10.100000,-0.002638
10.133333,-0.002960
10.166667,-0.002924
10.200000,-0.002639
10.233333,-0.002174
10.266667,-0.001526
10.300000,-0.000664
10.333333,0.000398
10.366667,0.001542
10.400000,0.002553
10.433333,0.003197
10.466667,0.003330
10.500000,0.002972
10.533333,0.002297
10.566667,0.001536
10.600000,0.000879
10.633333,0.000403
10.666667,0.000074
10.700000,-0.000210
10.733333,-0.000554
10.766667,-0.001013
10.800000,-0.001580
10.833333,-0.002201
10.866667,-0.002792
10.900000,-0.003246
10.933333,-0.003435
10.966667,-0.003246
11.000000,-0.002627
11.033333,-0.001620
11.066667,-0.000369
11.100000,0.000898
11.133333,0.001916
11.166667,0.002463
11.200000,0.002431
11.233333,0.001869
11.266667,0.000964
11.300000,-0.000011
11.333333,-0.000752
11.366667,-0.000993
11.400000,-0.000592
11.433333,0.000409
11.466667,0.001771
11.500000,0.003133
11.533333,0.004127
11.566667,0.004494
11.600000,0.004153
11.633333,0.003183
11.666667,0.001778
11.700000,0.000164
11.733333,-0.001461
11.766667,-0.002941
11.800000,-0.004141
11.833333,-0.004926
11.866667,-0.005165
11.900000,-0.004777
11.933333,-0.003796
11.966667,-0.002415
12.000000,-0.000965
12.033333,0.000183
12.066667,0.000761
12.100000,0.000715
12.133333,0.000216
12.166667,-0.000423
12.200000,-0.000887
12.233333,-0.000984
12.266667,-0.000679
12.300000,-0.000037
12.333333,0.000875
12.366667,0.002036
12.400000,0.003430
12.433333,0.004982
12.466667,0.006500
12.500000,0.007674
12.533333,0.008134
12.566667,0.007545
12.600000,0.005735
12.633333,0.002795
12.666667,-0.000882
12.700000,-0.004663
12.733333,-0.007834
12.766667,-0.009796
12.800000,-0.010243
12.833333,-0.009255
12.866667,-0.007277
12.900000,-0.004959
12.933333,-0.002923
12.966667,-0.001554
13.000000,-0.000891
13.033333,-0.000643
13.066667,-0.000329
13.100000,0.000520
13.133333,0.002139
13.166667,0.004366
13.200000,0.006633
13.233333,0.008161
13.266667,0.008284
13.300000,0.006745
13.333333,0.003822
13.366667,0.000231
13.400000,-0.003129
13.433333,-0.005476
13.466667,-0.006365
13.500000,-0.005751
13.533333,-0.003931
13.566667,-0.001413
13.600000,0.001211
13.633333,0.003390
13.666667,0.004715
13.700000,0.005004
13.733333,0.004342
13.766667,0.003050
13.800000,0.001579
13.833333,0.000354
13.866667,-0.000365
13.900000,-0.000561
13.933333,-0.000418
13.966667,-0.000220
14.000000,-0.000214
14.033333,-0.000529
14.066667,-0.001154
14.100000,-0.001988
14.133333,-0.002890
14.166667,-0.003706
14.200000,-0.004268
14.233333,-0.004411
14.266667,-0.004036
14.300000,-0.003176
14.333333,-0.002023
14.366667,-0.000861
14.400000,0.000069
14.433333,0.000679
14.466667,0.001057
14.500000,0.001399
14.533333,0.001897
14.566667,0.002655
14.600000,0.003639
14.633333,0.004664
14.666667,0.005422
14.700000,0.005560
14.733333,0.004789
14.766667,0.003014
14.800000,0.000420
14.833333,-0.002533
14.866667,-0.005216
14.900000,-0.007019
14.933333,-0.007554
14.966667,-0.006771
15.000000,-0.004935
15.033333,-0.002489
15.066667,0.000109
15.100000,0.002501
15.133333,0.004451
15.166667,0.005821
15.200000,0.006529
15.233333,0.006531
15.266667,0.005825
15.300000,0.004456
15.333333,0.002536
15.366667,0.000241
15.400000,-0.002180
15.433333,-0.004417
15.466667,-0.006114
15.500000,-0.006930
15.533333,-0.006641
15.566667,-0.005248
15.600000,-0.003033
15.633333,-0.000485
15.666667,0.001866
15.700000,0.003622
15.733333,0.004610
15.766667,0.004872
15.800000,0.004581
15.833333,0.003927
15.866667,0.003034
15.900000,0.001911
15.933333,0.000492
15.966667,-0.001262
16.000000,-0.003232
16.033333,-0.005083
16.066667,-0.006342
16.100000,-0.006594
16.133333,-0.005675
16.166667,-0.003751
16.200000,-0.001253
16.233333,0.001290
16.266667,0.003420
16.300000,0.004837
16.333333,0.005419
16.366667,0.005180
16.400000,0.004229
16.433333,0.002728
16.466667,0.000873
16.500000,-0.001111
16.533333,-0.002954
16.566667,-0.004373
16.600000,-0.005128
16.633333,-0.005091
16.666667,-0.004270
16.700000,-0.002784
16.733333,-0.000829
16.766667,0.001360
16.800000,0.003522
16.833333,0.005388
16.866667,0.006701
16.900000,0.007235
16.933333,0.006839
16.966667,0.005491
17.000000,0.003355
17.033333,0.000800
17.066667,-0.001672
17.100000,-0.003562
17.133333,-0.004549
17.166667,-0.004579
17.200000,-0.003873
17.233333,-0.002814
17.266667,-0.001804
17.300000,-0.001123
17.333333,-0.000850
17.366667,-0.000865
17.400000,-0.000923
17.433333,-0.000772
17.466667,-0.000254
17.500000,0.000626
17.533333,0.001690
17.566667,0.002636
17.600000,0.003122
17.633333,0.002883
17.666667,0.001825
17.700000,0.000075
17.733333,-0.002036
17.766667,-0.004067
17.800000,-0.005594
17.833333,-0.006332
17.866667,-0.006205
17.900000,-0.005348
17.933333,-0.004041
17.966667,-0.002592
18.000000,-0.001216
18.033333,0.000042
18.066667,0.001283
18.100000,0.002659
18.133333,0.004248
18.166667,0.005965
18.200000,0.007546
18.233333,0.008630
18.266667,0.008877
18.300000,0.008089
18.333333,0.006280
18.366667,0.003688
18.400000,0.000732
18.433333,-0.002071
18.466667,-0.004219
18.500000,-0.005355
18.533333,-0.005355
18.566667,-0.004349
18.600000,-0.002666
18.633333,-0.000735
18.666667,0.001030
18.700000,0.002310
18.733333,0.002916
18.766667,0.002776
18.800000,0.001913
18.833333,0.000428
18.866667,-0.001505
18.900000,-0.003629
18.933333,-0.005596
18.966667,-0.007019
19.000000,-0.007585
19.033333,-0.007180
19.066667,-0.005939
19.100000,-0.004190
19.133333,-0.002310
19.166667,-0.000584
19.200000,0.000893
19.233333,0.002201
19.266667,0.003488
19.300000,0.004814
19.333333,0.006050
19.366667,0.006900
19.400000,0.007038
19.433333,0.006281
19.466667,0.004696
19.500000,0.002601
19.533333,0.000463
19.566667,-0.001255
19.600000,-0.002234
19.633333,-0.002386
19.666667,-0.001884
19.700000,-0.001096
19.733333,-0.000434
19.766667,-0.000171
19.800000,-0.000330
19.833333,-0.000711
19.866667,-0.001027
19.900000,-0.001062
19.933333,-0.000775
19.966667,-0.000299
20.000000,0.000149
20.033333,0.000393
20.066667,0.000364
20.100000,0.000084
20.133333,-0.000390
20.166667,-0.000996
20.200000,-0.001645
20.233333,-0.002198
20.266667,-0.002477
20.300000,-0.002339
20.333333,-0.001757
20.366667,-0.000858
20.400000,0.000107
20.433333,0.000875
20.466667,0.001277
20.500000,0.001285
20.533333,0.000993
20.566667,0.000555
20.600000,0.000123
20.633333,-0.000195
20.666667,-0.000352
20.700000,-0.000344
20.733333,-0.000177
20.766667,0.000163
20.800000,0.000708
20.833333,0.001474
20.866667,0.002403
20.900000,0.003330
20.933333,0.004000
20.966667,0.004148
21.000000,0.003621
21.033333,0.002466
21.066667,0.000948
21.100000,-0.000551
21.133333,-0.001693
21.166667,-0.002346
21.200000,-0.002611
21.233333,-0.002707
21.266667,-0.002807
21.300000,-0.002952
21.333333,-0.003065
21.366667,-0.003036
21.400000,-0.002798
21.433333,-0.002355
21.466667,-0.001775
21.500000,-0.001163
21.533333,-0.000626
21.566667,-0.000241
21.600000,-0.000010
21.633333,0.000159
21.666667,0.000416
21.700000,0.000901
21.733333,0.001658
21.766667,0.002598
21.800000,0.003517
21.833333,0.004161
21.866667,0.004293
21.900000,0.003773
21.933333,0.002622
21.966667,0.001045
22.000000,-0.000613
22.033333,-0.001968
22.066667,-0.002730
22.100000,-0.002804
22.133333,-0.002333
22.166667,-0.001617
22.200000,-0.000978
22.233333,-0.000609
22.266667,-0.000524
22.300000,-0.000604
22.333333,-0.000696
22.366667,-0.000680
22.400000,-0.000490
22.433333,-0.000119
22.466667,0.000393
22.500000,0.000974
22.533333,0.001530
22.566667,0.001969
22.600000,0.002236
22.633333,0.002336
22.666667,0.002317
22.700000,0.002200
22.733333,0.001922
22.766667,0.001348
22.800000,0.000352
22.833333,-0.001091
22.866667,-0.002835
22.900000,-0.004568
22.933333,-0.005868
22.966667,-0.006321
23.000000,-0.005656
23.033333,-0.003844
23.066667,-0.001133
23.100000,0.001994
23.133333,0.004901
23.166667,0.006928
23.200000,0.007550
23.233333,0.006540
23.266667,0.004060
23.300000,0.000639
23.333333,-0.002964
23.366667,-0.005965
23.400000,-0.007751
23.433333,-0.008034
23.466667,-0.006903
23.500000,-0.004777
23.533333,-0.002263
23.566667,0.000039
23.600000,0.001714
23.633333,0.002680
23.666667,0.003201
23.700000,0.003763
23.733333,0.004813
23.766667,0.006488
23.800000,0.008472
23.833333,0.010063
23.866667,0.010445
23.900000,0.009048
23.933333,0.005833
23.966667,0.001362
24.000000,-0.003371
24.033333,-0.007289
24.066667,-0.009593
24.100000,-0.009999
24.133333,-0.008753
24.166667,-0.006484
24.200000,-0.003957
24.233333,-0.001845
24.266667,-0.000572
24.300000,-0.000256
24.333333,-0.000747
24.366667,-0.001726
24.400000,-0.002815
24.433333,-0.003648
24.466667,-0.003919
24.500000,-0.003403
24.533333,-0.001998
24.566667,0.000225
24.600000,0.002976
24.633333,0.005776
24.666667,0.008045
24.700000,0.009242
24.733333,0.009012
24.766667,0.007305
24.800000,0.004410
24.833333,0.000891
24.866667,-0.002564
24.900000,-0.005310
24.933333,-0.006897
24.966667,-0.007155
25.000000,-0.006211
25.033333,-0.004409
25.066667,-0.002184
25.100000,0.000062
25.133333,0.001999
25.166667,0.003361
25.200000,0.003953
25.233333,0.003701
25.266667,0.002731
25.300000,0.001365
25.333333,0.000027
25.366667,-0.000901
25.400000,-0.001199
25.433333,-0.000831
25.466667,0.000079
25.500000,0.001291
25.533333,0.002496
25.566667,0.003372
25.600000,0.003669
25.633333,0.003290
25.666667,0.002329
25.700000,0.001029
25.733333,-0.000306
25.766667,-0.001413
25.800000,-0.002145
25.833333,-0.002485
25.866667,-0.002533
25.900000,-0.002453
25.933333,-0.002417
25.966667,-0.002537
26.000000,-0.002826
26.033333,-0.003195
26.066667,-0.003499
26.100000,-0.003594
26.133333,-0.003392
26.166667,-0.002896
26.200000,-0.002197
26.233333,-0.001450
26.266667,-0.000810
26.300000,-0.000354
26.333333,-0.000028
26.366667,0.000331
26.400000,0.000905
26.433333,0.001805
26.466667,0.003004
26.500000,0.004330
26.533333,0.005511
26.566667,0.006247
26.600000,0.006313
26.633333,0.005648
26.666667,0.004378
26.700000,0.002780
26.733333,0.001188
26.766667,-0.000113
26.800000,-0.000957
26.833333,-0.001332
26.866667,-0.001363
26.900000,-0.001262
26.933333,-0.001258
26.966667,-0.001490
27.000000,-0.001924
27.033333,-0.002340
27.066667,-0.002434
27.100000,-0.001998
27.133333,-0.001082
27.166667,-0.000025
27.200000,0.000683
27.233333,0.000632
27.266667,-0.000322
27.300000,-0.002004
27.333333,-0.003982
27.366667,-0.005697
27.400000,-0.006607
27.433333,-0.006322
27.466667,-0.004698
27.500000,-0.001894
27.533333,0.001627
27.566667,0.005161
27.600000,0.007911
27.633333,0.009213
27.666667,0.008767
27.700000,0.006748
27.733333,0.003750
27.766667,0.000582
27.800000,-0.001987
27.833333,-0.003457
27.866667,-0.003711
27.900000,-0.002992
27.933333,-0.001775
27.966667,-0.000602
28.000000,0.000073
28.033333,-0.000003
28.066667,-0.000818
28.100000,-0.002101
28.133333,-0.003404
28.166667,-0.004240
28.200000,-0.004237
28.233333,-0.003250
28.266667,-0.001387
28.300000,0.001014
28.333333,0.003442
28.366667,0.005308
28.400000,0.006082
28.433333,0.005499
28.466667,0.003709
28.500000,0.001304
28.533333,-0.000869
28.566667,-0.002034
28.600000,-0.001816
28.633333,-0.000375
28.666667,0.001693
28.700000,0.003623
28.733333,0.004774
28.766667,0.004827
28.800000,0.003832
28.833333,0.002101
28.866667,0.000031
28.900000,-0.002045
28.933333,-0.003910
28.966667,-0.005428
29.000000,-0.006484
29.033333,-0.006975
29.066667,-0.006845
29.100000,-0.006119
29.133333,-0.004909
29.166667,-0.003378
29.200000,-0.001690
29.233333,0.000014
29.266667,0.001626
29.300000,0.003047
29.333333,0.004165
29.366667,0.004849
29.400000,0.004970
29.433333,0.004437
29.466667,0.003254
29.500000,0.001563
29.533333,-0.000367
29.566667,-0.002184
29.600000,-0.003531
29.633333,-0.004115
29.666667,-0.003763
29.700000,-0.002479
29.733333,-0.000477
29.766667,0.001830
29.800000,0.003919
29.833333,0.005319
29.866667,0.005749
29.900000,0.005197
29.933333,0.003908
29.966667,0.002296
30.000000,0.000803
30.033333,-0.000269
30.066667,-0.000872
30.100000,-0.001203
30.133333,-0.001573
30.166667,-0.002208
30.200000,-0.003111
30.233333,-0.004046
30.266667,-0.004645
30.300000,-0.004568
30.333333,-0.003634
30.366667,-0.001891
30.400000,0.000375
30.433333,0.002700
30.466667,0.004558
30.500000,0.005501
30.533333,0.005286
30.566667,0.003934
30.600000,0.001718
30.633333,-0.000903
30.666667,-0.003379
30.700000,-0.005177
30.733333,-0.005906
30.766667,-0.005428
30.800000,-0.003903
30.833333,-0.001749
30.866667,0.000480
30.900000,0.002249
30.933333,0.003176
30.966667,0.003130
31.000000,0.002262
31.033333,0.000955
31.066667,-0.000314
31.100000,-0.001144
31.133333,-0.001345
31.166667,-0.000966
31.200000,-0.000225
31.233333,0.000614
31.266667,0.001345
31.300000,0.001874
31.333333,0.002192
31.366667,0.002332
31.400000,0.002309
31.433333,0.002087
31.466667,0.001596
31.500000,0.000783
31.533333,-0.000309
31.566667,-0.001491
31.600000,-0.002433
31.633333,-0.002761
31.666667,-0.002209
31.700000,-0.000772
31.733333,0.001243
31.766667,0.003273
31.800000,0.004665
31.833333,0.004885
31.866667,0.003693
31.900000,0.001225
31.933333,-0.002026
31.966667,-0.005334
32.000000,-0.007919
32.033333,-0.009176
32.066667,-0.008836
32.100000,-0.007030
32.133333,-0.004209
32.166667,-0.000995
32.200000,0.001993
32.233333,0.004268
32.266667,0.005552
32.300000,0.005787
32.333333,0.005119
32.366667,0.003852
32.400000,0.002391
32.433333,0.001151
32.466667,0.000443
32.500000,0.000378
32.533333,0.000828
32.566667,0.001467
32.600000,0.001903
32.633333,0.001822
32.666667,0.001094
32.700000,-0.000184
32.733333,-0.001719
32.766667,-0.003132
32.800000,-0.004098
32.833333,-0.004438
32.866667,-0.004130
32.900000,-0.003254
32.933333,-0.001923
32.966667,-0.000262
33.000000,0.001584
33.033333,0.003408
33.066667,0.004934
33.100000,0.005859
33.133333,0.005928
33.166667,0.005034
33.200000,0.003277
33.233333,0.000950
33.266667,-0.001520
33.300000,-0.003677
33.333333,-0.005127
33.366667,-0.005606
33.400000,-0.005041
33.433333,-0.003584
33.466667,-0.001600
33.500000,0.000397
33.533333,0.001884
33.566667,0.002498
33.600000,0.002161
33.633333,0.001099
33.666667,-0.000267
33.700000,-0.001508
33.733333,-0.002337
33.766667,-0.002673
33.800000,-0.002595
33.833333,-0.002231
33.866667,-0.001672
33.900000,-0.000945
33.933333,-0.000069
33.966667,0.000888
34.000000,0.001811
34.033333,0.002587
34.066667,0.003147
34.100000,0.003476
34.133333,0.003584
34.166667,0.003486
34.200000,0.003192
34.233333,0.002721
34.266667,0.002112
34.300000,0.001413
34.333333,0.000659
34.366667,-0.000130
34.400000,-0.000928
34.433333,-0.001671
34.466667,-0.002257
34.500000,-0.002597
34.533333,-0.002691
34.566667,-0.002655
34.600000,-0.002672
