# Time_Sec,Amplitude
0.000000,-0.000406
0.033333,0.004269
0.066667,0.008035
0.100000,0.010171
0.133333,0.010323
0.166667,0.008599
0.200000,0.005578
0.233333,0.002191
0.266667,-0.000555
0.300000,-0.001909
0.333333,-0.001649
0.366667,-0.000135
0.400000,0.001879
0.433333,0.003588
0.466667,0.004464
0.500000,0.004415
0.533333,0.003725
0.566667,0.002821
0.600000,0.002017
0.633333,0.001350
0.666667,0.000592
0.700000,-0.000594
0.733333,-0.002418
0.766667,-0.004796
0.800000,-0.007305
0.833333,-0.009316
0.866667,-0.010231
0.900000,-0.009726
0.933333,-0.007870
0.966667,-0.005086
1.000000,-0.001977
1.033333,0.000888
1.066667,0.003135
1.100000,0.004647
1.133333,0.005503
1.166667,0.005874
1.200000,0.005903
1.233333,0.005659
1.266667,0.005149
1.300000,0.004376
1.333333,0.003376
1.366667,0.002232
1.400000,0.001064
1.433333,-0.000001
1.466667,-0.000874
1.500000,-0.001532
1.533333,-0.002021
1.566667,-0.002416
1.600000,-0.002756
1.633333,-0.003004
1.666667,-0.003053
1.700000,-0.002814
1.733333,-0.002304
1.766667,-0.001679
1.800000,-0.001146
1.833333,-0.000827
1.866667,-0.000662
1.900000,-0.000435
1.933333,0.000096
1.966667,0.001034
2.000000,0.002254
2.033333,0.003417
2.066667,0.004116
2.100000,0.004037
2.133333,0.003086
2.166667,0.001434
2.200000,-0.000537
2.233333,-0.002345
2.266667,-0.003553
2.300000,-0.003902
2.333333,-0.003382
2.366667,-0.002230
2.400000,-0.000839
2.433333,0.000397
2.466667,0.001229
2.500000,0.001613
2.533333,0.001671
2.566667,0.001587
2.600000,0.001510
2.633333,0.001501
2.666667,0.001534
2.700000,0.001516
2.733333,0.001317
2.766667,0.000811
2.800000,-0.000060
2.833333,-0.001243
2.866667,-0.002562
2.900000,-0.003757
2.933333,-0.004565
2.966667,-0.004797
3.000000,-0.004387
3.033333,-0.003385
3.066667,-0.001933
3.100000,-0.000220
3.133333,0.001544
3.166667,0.003152
3.200000,0.004421
3.233333,0.005228
3.266667,0.005541
3.300000,0.005404
3.333333,0.004912
3.366667,0.004173
3.400000,0.003286
3.433333,0.002340
3.466667,0.001411
3.500000,0.000556
3.533333,-0.000210
3.566667,-0.000918
3.600000,-0.001634
3.633333,-0.002427
3.666667,-0.003338
3.700000,-0.004360
3.733333,-0.005433
3.766667,-0.006442
3.800000,-0.007214
3.833333,-0.007521
3.866667,-0.007118
3.900000,-0.005830
3.933333,-0.003664
3.966667,-0.000888
4.000000,0.001994
4.033333,0.004411
4.066667,0.005931
4.100000,0.006410
4.133333,0.006009
4.166667,0.005101
4.200000,0.004123
4.233333,0.003428
4.266667,0.003178
4.300000,0.003315
4.333333,0.003603
4.366667,0.003731
4.400000,0.003431
4.433333,0.002567
4.466667,0.001174
4.500000,-0.000567
4.533333,-0.002385
4.566667,-0.003974
4.600000,-0.005048
4.633333,-0.005397
4.666667,-0.004946
4.700000,-0.003805
4.733333,-0.002277
4.766667,-0.000785
4.800000,0.000253
4.833333,0.000564
4.866667,0.000118
4.900000,-0.000862
4.933333,-0.001975
4.966667,-0.002775
5.000000,-0.002919
5.033333,-0.002283
5.066667,-0.000987
5.100000,0.000660
5.133333,0.002298
5.166667,0.003630
5.200000,0.004490
5.233333,0.004823
5.266667,0.004638
5.300000,0.003964
5.333333,0.002847
5.366667,0.001390
5.400000,-0.000230
5.433333,-0.001768
5.466667,-0.002971
5.500000,-0.003647
5.533333,-0.003721
5.566667,-0.003256
5.600000,-0.002422
5.633333,-0.001445
5.666667,-0.000537
5.700000,0.000147
5.733333,0.000527
5.766667,0.000598
5.800000,0.000420
5.833333,0.000085
5.866667,-0.000313
5.900000,-0.000690
5.933333,-0.000968
5.966667,-0.001069
6.000000,-0.000913
6.033333,-0.000419
6.066667,0.000475
6.100000,0.001779
6.133333,0.003398
6.166667,0.005085
6.200000,0.006460
6.233333,0.007093
6.266667,0.006642
6.300000,0.004985
6.333333,0.002313
6.366667,-0.000893
6.400000,-0.003966
6.433333,-0.006244
6.466667,-0.007266
6.500000,-0.006905
6.533333,-0.005395
6.566667,-0.003239
6.600000,-0.001043
6.633333,0.000677
6.666667,0.001636
6.700000,0.001829
6.733333,0.001459
6.766667,0.000802
6.800000,0.000088
6.833333,-0.000562
6.866667,-0.001112
6.900000,-0.001566
6.933333,-0.001935
6.966667,-0.002226
7.000000,-0.002441
7.033333,-0.002576
7.066667,-0.002614
7.100000,-0.002531
7.133333,-0.002303
7.166667,-0.001917
7.200000,-0.001359
7.233333,-0.000602
7.266667,0.000393
7.300000,0.001652
7.333333,0.003133
7.366667,0.004702
7.400000,0.006144
7.433333,0.007224
7.466667,0.007764
7.500000,0.007689
7.533333,0.007039
7.566667,0.005926
7.600000,0.004469
7.633333,0.002747
7.666667,0.000798
7.700000,-0.001324
7.733333,-0.003482
7.766667,-0.005420
7.800000,-0.006812
7.833333,-0.007361
7.866667,-0.006904
7.900000,-0.005493
7.933333,-0.003410
7.966667,-0.001123
8.000000,0.000824
8.033333,0.001959
8.066667,0.002019
8.100000,0.001013
8.133333,-0.000789
8.166667,-0.002951
8.200000,-0.004980
8.233333,-0.006425
8.266667,-0.006953
8.300000,-0.006406
8.333333,-0.004838
8.366667,-0.002503
8.400000,0.000208
8.433333,0.002878
8.466667,0.005166
8.500000,0.006863
8.533333,0.007882
8.566667,0.008221
8.600000,0.007928
8.633333,0.007082
8.666667,0.005806
8.700000,0.004260
8.733333,0.002623
8.766667,0.001061
8.800000,-0.000315
8.833333,-0.001468
8.866667,-0.002417
8.900000,-0.003203
8.933333,-0.003845
8.966667,-0.004313
9.000000,-0.004528
9.033333,-0.004400
9.066667,-0.003872
9.100000,-0.002957
9.133333,-0.001760
9.166667,-0.000462
9.200000,0.000715
9.233333,0.001567
9.266667,0.001970
9.300000,0.001912
9.333333,0.001494
9.366667,0.000901
9.400000,0.000342
9.433333,-0.000002
9.466667,-0.000024
9.500000,0.000282
9.533333,0.000820
9.566667,0.001401
9.600000,0.001796
9.633333,0.001811
9.666667,0.001374
9.700000,0.000565
9.733333,-0.000421
9.766667,-0.001365
9.800000,-0.002110
9.833333,-0.002598
9.866667,-0.002837
9.900000,-0.002860
9.933333,-0.002689
9.966667,-0.002342
10.000000,-0.001845
10.033333,-0.001252
10.066667,-0.000650
10.100000,-0.000146
10.133333,0.000154
10.166667,0.000193
10.200000,-0.000002
10.233333,-0.000295
10.266667,-0.000467
10.300000,-0.000280
10.333333,0.000446
10.366667,0.001763
10.400000,0.003570
10.433333,0.005623
10.466667,0.007566
10.500000,0.008968
10.533333,0.009392
10.566667,0.008495
10.600000,0.006159
10.633333,0.002596
10.666667,-0.001645
10.700000,-0.005794
10.733333,-0.009068
10.766667,-0.010893
10.800000,-0.011063
10.833333,-0.009770
10.866667,-0.007513
10.900000,-0.004933
10.933333,-0.002617
10.966667,-0.000922
11.000000,0.000119
11.033333,0.000771
11.066667,0.001437
11.100000,0.002437
11.133333,0.003820
11.166667,0.005299
11.200000,0.006360
11.233333,0.006489
11.266667,0.005433
11.300000,0.003331
11.333333,0.000667
11.366667,-0.001911
11.400000,-0.003821
11.433333,-0.004698
11.466667,-0.004462
11.500000,-0.003294
11.533333,-0.001553
11.566667,0.000324
11.600000,0.001919
11.633333,0.002903
11.666667,0.003084
11.700000,0.002426
11.733333,0.001064
11.766667,-0.000688
11.800000,-0.002365
11.833333,-0.003437
11.866667,-0.003452
11.900000,-0.002212
11.933333,0.000117
11.966667,0.003003
12.000000,0.005690
12.033333,0.007420
12.066667,0.007652
12.100000,0.006197
12.133333,0.003248
12.166667,-0.000654
12.200000,-0.004727
12.233333,-0.008103
12.266667,-0.010039
12.300000,-0.010112
12.333333,-0.008347
12.366667,-0.005227
12.400000,-0.001572
12.433333,0.001696
12.466667,0.003829
12.500000,0.004478
12.533333,0.003773
12.566667,0.002246
12.600000,0.000632
12.633333,-0.000357
12.666667,-0.000244
12.700000,0.001066
12.733333,0.003230
12.766667,0.005522
12.800000,0.007054
12.833333,0.007081
12.866667,0.005310
12.900000,0.002032
12.933333,-0.001970
12.966667,-0.005692
13.000000,-0.008243
13.033333,-0.009104
13.066667,-0.008240
13.100000,-0.006066
13.133333,-0.003271
13.166667,-0.000597
13.200000,0.001395
13.233333,0.002466
13.266667,0.002716
13.300000,0.002485
13.333333,0.002186
13.366667,0.002153
13.400000,0.002537
13.433333,0.003268
13.466667,0.004085
13.500000,0.004616
13.533333,0.004519
13.566667,0.003616
13.600000,0.001976
13.633333,-0.000106
13.666667,-0.002204
13.700000,-0.003905
13.733333,-0.004934
13.766667,-0.005220
13.800000,-0.004888
13.833333,-0.004179
13.866667,-0.003344
13.900000,-0.002551
13.933333,-0.001848
13.966667,-0.001179
14.000000,-0.000414
14.033333,0.000602
14.066667,0.001979
14.100000,0.003689
14.133333,0.005491
14.166667,0.006943
14.200000,0.007522
14.233333,0.006811
14.266667,0.004694
14.300000,0.001445
14.333333,-0.002307
14.366667,-0.005744
14.400000,-0.008082
14.433333,-0.008796
14.466667,-0.007771
14.500000,-0.005339
14.533333,-0.002189
14.566667,0.000844
14.600000,0.003034
14.633333,0.003966
14.666667,0.003624
14.700000,0.002340
14.733333,0.000654
14.766667,-0.000866
14.800000,-0.001775
14.833333,-0.001854
14.866667,-0.001142
14.900000,0.000093
14.933333,0.001460
14.966667,0.002567
15.000000,0.003125
15.033333,0.003011
15.066667,0.002288
15.100000,0.001193
15.133333,0.000071
15.166667,-0.000738
15.200000,-0.001022
15.233333,-0.000761
15.266667,-0.000119
15.300000,0.000635
15.333333,0.001223
15.366667,0.001436
15.400000,0.001203
15.433333,0.000597
15.466667,-0.000200
15.500000,-0.000970
15.533333,-0.001529
15.566667,-0.001777
15.600000,-0.001699
15.633333,-0.001354
15.666667,-0.000853
15.700000,-0.000338
15.733333,0.000043
15.766667,0.000168
15.800000,-0.000023
15.833333,-0.000489
15.866667,-0.001087
15.900000,-0.001615
15.933333,-0.001893
15.966667,-0.001848
16.000000,-0.001545
16.033333,-0.001139
16.066667,-0.000776
16.100000,-0.000526
16.133333,-0.000364
16.166667,-0.000215
16.200000,-0.000007
16.233333,0.000291
16.266667,0.000680
16.300000,0.001150
16.333333,0.001691
16.366667,0.002288
16.400000,0.002886
16.433333,0.003370
16.466667,0.003570
16.500000,0.003334
16.533333,0.002607
16.566667,0.001505
16.600000,0.000301
16.633333,-0.000644
16.666667,-0.001020
16.700000,-0.000701
16.733333,0.000179
16.766667,0.001238
16.800000,0.001970
16.833333,0.001938
16.866667,0.000946
16.900000,-0.000872
16.933333,-0.003091
16.966667,-0.005135
17.000000,-0.006454
17.033333,-0.006684
17.066667,-0.005727
17.100000,-0.003772
17.133333,-0.001227
17.166667,0.001392
17.200000,0.003586
17.233333,0.004971
17.266667,0.005324
17.300000,0.004613
17.333333,0.002985
17.366667,0.000735
17.400000,-0.001745
17.433333,-0.004025
17.466667,-0.005700
17.500000,-0.006454
17.533333,-0.006109
17.566667,-0.004669
17.600000,-0.002327
17.633333,0.000560
17.666667,0.003520
17.700000,0.006055
17.733333,0.007741
17.766667,0.008335
17.800000,0.007825
17.833333,0.006413
17.866667,0.004425
17.900000,0.002217
17.933333,0.000100
17.966667,-0.001696
18.000000,-0.003035
18.033333,-0.003877
18.066667,-0.004276
18.100000,-0.004363
18.133333,-0.004290
18.166667,-0.004172
18.200000,-0.004046
18.233333,-0.003847
18.266667,-0.003431
18.300000,-0.002627
18.333333,-0.001321
18.366667,0.000451
18.400000,0.002456
18.433333,0.004312
18.466667,0.005612
18.500000,0.006070
18.533333,0.005630
18.566667,0.004479
18.600000,0.002974
18.633333,0.001508
18.666667,0.000363
18.700000,-0.000369
18.733333,-0.000783
18.766667,-0.001075
18.800000,-0.001418
18.833333,-0.001871
18.866667,-0.002369
18.900000,-0.002786
18.933333,-0.003024
18.966667,-0.003060
19.000000,-0.002950
19.033333,-0.002791
19.066667,-0.002666
19.100000,-0.002599
19.133333,-0.002531
19.166667,-0.002344
19.200000,-0.001921
19.233333,-0.001217
19.266667,-0.000285
19.300000,0.000748
19.333333,0.001752
19.366667,0.002646
19.400000,0.003408
19.433333,0.004036
19.466667,0.004494
19.500000,0.004703
19.533333,0.004576
19.566667,0.004084
19.600000,0.003278
19.633333,0.002282
19.666667,0.001242
19.700000,0.000280
19.733333,-0.000527
19.766667,-0.001143
19.800000,-0.001557
19.833333,-0.001753
19.866667,-0.001711
19.900000,-0.001428
19.933333,-0.000964
19.966667,-0.000455
20.000000,-0.000096
20.033333,-0.000073
20.066667,-0.000487
20.100000,-0.001331
20.133333,-0.002490
20.166667,-0.003776
20.200000,-0.004943
20.233333,-0.005724
20.266667,-0.005869
20.300000,-0.005212
20.333333,-0.003738
20.366667,-0.001624
20.400000,0.000779
20.433333,0.003041
20.466667,0.004798
20.500000,0.005854
20.533333,0.006198
20.566667,0.005943
20.600000,0.005244
20.633333,0.004237
20.666667,0.003033
20.700000,0.001732
20.733333,0.000458
20.766667,-0.000639
20.800000,-0.001402
20.833333,-0.001717
20.866667,-0.001568
20.900000,-0.001062
20.933333,-0.000422
20.966667,0.000077
21.000000,0.000199
21.033333,-0.000154
21.066667,-0.000890
21.100000,-0.001757
21.133333,-0.002431
21.166667,-0.002642
21.200000,-0.002270
21.233333,-0.001397
21.266667,-0.000281
21.300000,0.000739
21.333333,0.001367
21.366667,0.001460
21.400000,0.001067
21.433333,0.000398
21.466667,-0.000280
21.500000,-0.000761
21.533333,-0.000993
21.566667,-0.001078
21.600000,-0.001190
21.633333,-0.001433
21.666667,-0.001731
21.700000,-0.001835
21.733333,-0.001456
21.766667,-0.000434
21.800000,0.001127
21.833333,0.002848
21.866667,0.004195
21.900000,0.004684
21.933333,0.004087
21.966667,0.002540
22.000000,0.000498
22.033333,-0.001456
22.066667,-0.002829
22.100000,-0.003365
22.133333,-0.003066
22.166667,-0.002122
22.200000,-0.000818
22.233333,0.000554
22.266667,0.001757
22.300000,0.002633
22.333333,0.003105
22.366667,0.003152
22.400000,0.002780
22.433333,0.001995
22.466667,0.000794
22.500000,-0.000813
22.533333,-0.002747
22.566667,-0.004798
22.600000,-0.006590
22.633333,-0.007613
22.666667,-0.007349
22.700000,-0.005481
22.733333,-0.002100
22.766667,0.002213
22.800000,0.006494
22.833333,0.009688
22.866667,0.010996
22.900000,0.010136
22.933333,0.007421
22.966667,0.003623
23.000000,-0.000307
23.033333,-0.003540
23.066667,-0.005592
23.100000,-0.006387
23.133333,-0.006178
23.166667,-0.005375
23.200000,-0.004367
23.233333,-0.003385
23.266667,-0.002468
23.300000,-0.001523
23.333333,-0.000443
23.366667,0.000796
23.400000,0.002082
23.433333,0.003186
23.466667,0.003833
23.500000,0.003817
23.533333,0.003105
23.566667,0.001891
23.600000,0.000547
23.633333,-0.000512
23.666667,-0.000990
23.700000,-0.000820
23.733333,-0.000189
23.766667,0.000552
23.800000,0.001029
23.833333,0.000985
23.866667,0.000362
23.900000,-0.000703
23.933333,-0.001936
23.966667,-0.003019
24.000000,-0.003669
24.033333,-0.003703
24.066667,-0.003074
24.100000,-0.001881
24.133333,-0.000346
24.166667,0.001234
24.200000,0.002579
24.233333,0.003496
24.266667,0.003913
24.300000,0.003853
24.333333,0.003395
24.366667,0.002634
24.400000,0.001670
24.433333,0.000607
24.466667,-0.000451
24.500000,-0.001395
24.533333,-0.002120
24.566667,-0.002535
24.600000,-0.002580
24.633333,-0.002234
24.666667,-0.001531
24.700000,-0.000567
24.733333,0.000506
24.766667,0.001489
24.800000,0.002172
24.833333,0.002374
24.866667,0.001993
24.900000,0.001045
24.933333,-0.000331
24.966667,-0.001897
25.000000,-0.003356
25.033333,-0.004406
25.066667,-0.004797
25.100000,-0.004387
25.133333,-0.003182
25.166667,-0.001352
25.200000,0.000806
25.233333,0.002920
25.266667,0.004634
25.300000,0.005673
25.333333,0.005889
25.366667,0.005278
25.400000,0.003972
25.433333,0.002214
25.466667,0.000315
25.500000,-0.001401
25.533333,-0.002649
25.566667,-0.003243
25.600000,-0.003133
25.633333,-0.002422
25.666667,-0.001343
25.700000,-0.000225
25.733333,0.000593
25.766667,0.000839
25.800000,0.000406
25.833333,-0.000602
25.866667,-0.001885
25.900000,-0.003033
25.933333,-0.003653
25.966667,-0.003498
26.000000,-0.002545
26.033333,-0.001001
26.066667,0.000768
26.100000,0.002345
26.133333,0.003396
26.166667,0.003764
26.200000,0.003495
26.233333,0.002805
26.266667,0.001973
26.300000,0.001245
26.333333,0.000748
26.366667,0.000464
26.400000,0.000265
26.433333,-0.000019
26.466667,-0.000516
26.500000,-0.001246
26.533333,-0.002097
26.566667,-0.002853
26.600000,-0.003258
26.633333,-0.003101
26.666667,-0.002302
26.700000,-0.000963
26.733333,0.000644
26.766667,0.002159
26.800000,0.003254
26.833333,0.003716
26.866667,0.003481
26.900000,0.002623
26.933333,0.001334
26.966667,-0.000109
27.000000,-0.001395
27.033333,-0.002250
27.066667,-0.002496
27.100000,-0.002096
27.133333,-0.001162
27.166667,0.000057
27.200000,0.001226
27.233333,0.002008
27.266667,0.002162
27.300000,0.001614
27.333333,0.000484
27.366667,-0.000947
27.400000,-0.002305
27.433333,-0.003224
27.466667,-0.003447
27.500000,-0.002903
27.533333,-0.001747
27.566667,-0.000311
27.600000,0.001008
27.633333,0.001896
27.666667,0.002217
27.700000,0.002029
27.733333,0.001519
27.766667,0.000914
27.800000,0.000412
27.833333,0.000157
27.866667,0.000236
27.900000,0.000662
27.933333,0.001342
27.966667,0.002044
28.000000,0.002433
28.033333,0.002193
28.066667,0.001184
28.100000,-0.000478
28.133333,-0.002446
28.166667,-0.004258
28.200000,-0.005481
28.233333,-0.005845
28.266667,-0.005315
28.300000,-0.004081
28.333333,-0.002481
28.366667,-0.000873
28.400000,0.000466
28.433333,0.001416
28.466667,0.002029
28.500000,0.002484
28.533333,0.002985
28.566667,0.003657
28.600000,0.004472
28.633333,0.005246
28.666667,0.005720
28.700000,0.005662
28.733333,0.004970
28.766667,0.003701
28.800000,0.002047
28.833333,0.000255
28.866667,-0.001453
28.900000,-0.002932
28.933333,-0.004110
28.966667,-0.004958
29.000000,-0.005444
29.033333,-0.005509
29.066667,-0.005082
29.100000,-0.004145
29.133333,-0.002804
29.166667,-0.001316
29.200000,-0.000041
29.233333,0.000698
29.266667,0.000768
29.300000,0.000297
29.333333,-0.000374
29.366667,-0.000843
29.400000,-0.000816
29.433333,-0.000215
29.466667,0.000816
29.500000,0.002006
29.533333,0.003076
29.566667,0.003825
29.600000,0.004157
29.633333,0.004062
29.666667,0.003583
29.700000,0.002791
29.733333,0.001782
29.766667,0.000666
29.800000,-0.000433
29.833333,-0.001396
29.866667,-0.002140
29.900000,-0.002636
29.933333,-0.002916
29.966667,-0.003055
30.000000,-0.003116
30.033333,-0.003105
30.066667,-0.002950
30.100000,-0.002537
30.133333,-0.001784
30.166667,-0.000700
30.200000,0.000597
30.233333,0.001915
30.266667,0.003052
30.300000,0.003861
30.333333,0.004273
30.366667,0.004284
30.400000,0.003939
30.433333,0.003308
30.466667,0.002482
30.500000,0.001561
30.533333,0.000629
30.566667,-0.000260
30.600000,-0.001085
30.633333,-0.001839
30.666667,-0.002499
30.700000,-0.003017
30.733333,-0.003345
30.766667,-0.003462
30.800000,-0.003393
30.833333,-0.003206
30.866667,-0.002978
30.900000,-0.002772
30.933333,-0.002614
30.966667,-0.002487
31.000000,-0.002346
31.033333,-0.002132
31.066667,-0.001798
31.100000,-0.001331
31.133333,-0.000755
31.166667,-0.000104
31.200000,0.000634
31.233333,0.001555
31.266667,0.002804
31.300000,0.004462
31.333333,0.006433
31.366667,0.008392
31.400000,0.009865
31.433333,0.010379
31.466667,0.009630
31.500000,0.007598
31.533333,0.004562
31.566667,0.001034
31.600000,-0.002389
31.633333,-0.005197
31.666667,-0.007097
31.700000,-0.008041
31.733333,-0.008156
31.766667,-0.007627
31.800000,-0.006618
31.833333,-0.005252
31.866667,-0.003650
31.900000,-0.001975
31.933333,-0.000444
31.966667,0.000705
32.000000,0.001265
32.033333,0.001130
32.066667,0.000357
32.100000,-0.000803
32.133333,-0.001937
32.166667,-0.002593
32.200000,-0.002428
32.233333,-0.001342
32.266667,0.000465
32.300000,0.002543
32.333333,0.004330
32.366667,0.005340
32.400000,0.005326
32.433333,0.004366
32.466667,0.002821
32.500000,0.001197
32.533333,-0.000045
32.566667,-0.000640
32.600000,-0.000579
32.633333,-0.000080
32.666667,0.000520
32.700000,0.000915
32.733333,0.000940
32.766667,0.000605
32.800000,0.000042
32.833333,-0.000576
32.866667,-0.001097
32.900000,-0.001422
32.933333,-0.001513
32.966667,-0.001400
33.000000,-0.001174
33.033333,-0.000945
33.066667,-0.000784
33.100000,-0.000676
33.133333,-0.000531
33.166667,-0.000241
33.200000,0.000220
33.233333,0.000738
33.266667,0.001080
33.300000,0.000981
33.333333,0.000282
33.366667,-0.000969
33.400000,-0.002488
33.433333,-0.003830
33.466667,-0.004541
33.500000,-0.004322
33.533333,-0.003128
33.566667,-0.001168
33.600000,0.001172
33.633333,0.003446
33.666667,0.005253
33.700000,0.006318
33.733333,0.006540
33.766667,0.005999
33.800000,0.004902
33.833333,0.003491
33.866667,0.001956
33.900000,0.000402
33.933333,-0.001105
33.966667,-0.002466
34.000000,-0.003525
34.033333,-0.004123
34.066667,-0.004208
34.100000,-0.003887
34.133333,-0.003390
34.166667,-0.002954
34.200000,-0.002698
34.233333,-0.002574
34.266667,-0.002407
34.300000,-0.001992
34.333333,-0.001206
34.366667,-0.000084
34.400000,0.001172
34.433333,0.002249
34.466667,0.002841
34.500000,0.002772
34.533333,0.002069
34.566667,0.000963
34.600000,-0.000188
