Time_Sec,Amplitude
0.000000,0.063799
0.033333,0.928656
0.066667,1.643390
0.100000,2.104081
0.133333,2.278563
0.166667,2.204005
0.200000,1.958494
0.233333,1.623402
0.266667,1.255861
0.300000,0.880854
0.333333,0.500228
0.366667,0.109784
0.400000,-0.284840
0.433333,-0.660804
0.466667,-0.982164
0.500000,-1.212145
0.533333,-1.326163
0.566667,-1.318981
0.600000,-1.203745
0.633333,-1.005059
0.666667,-0.750604
0.700000,-0.465960
0.733333,-0.174921
0.766667,0.096691
0.800000,0.319180
0.833333,0.463403
0.866667,0.510226
0.900000,0.459188
0.933333,0.331154
0.966667,0.164062
1.000000,0.004024
1.033333,-0.105469
1.066667,-0.134028
1.100000,-0.072442
1.133333,0.063638
1.166667,0.236170
1.200000,0.394207
1.233333,0.489005
1.266667,0.490063
1.300000,0.395649
1.333333,0.233225
1.366667,0.049562
1.400000,-0.105516
1.433333,-0.195564
1.466667,-0.208167
1.500000,-0.156640
1.533333,-0.073603
1.566667,0.000358
1.600000,0.029644
1.633333,-0.004700
1.666667,-0.097868
1.700000,-0.221710
1.733333,-0.333343
1.766667,-0.389418
1.800000,-0.361478
1.833333,-0.247184
1.866667,-0.072857
1.900000,0.114564
1.933333,0.263506
1.966667,0.335348
2.000000,0.316773
2.033333,0.222486
2.066667,0.087652
2.100000,-0.046367
2.133333,-0.146296
2.166667,-0.194974
2.200000,-0.191251
2.233333,-0.144589
2.266667,-0.069017
2.300000,0.020364
2.333333,0.107714
2.366667,0.175682
2.400000,0.206817
2.433333,0.188636
2.466667,0.119917
2.500000,0.013906
2.533333,-0.103700
2.566667,-0.200781
2.600000,-0.246567
2.633333,-0.219641
2.666667,-0.115034
2.700000,0.051100
2.733333,0.241032
2.766667,0.401357
2.800000,0.476755
2.833333,0.429628
2.866667,0.257981
2.900000,0.001545
2.933333,-0.268966
2.966667,-0.475522
3.000000,-0.559208
3.033333,-0.499134
3.066667,-0.317806
3.100000,-0.072779
3.133333,0.160884
3.166667,0.311297
3.200000,0.328707
3.233333,0.199260
3.266667,-0.049649
3.300000,-0.354572
3.333333,-0.630650
3.366667,-0.791288
3.400000,-0.767839
3.433333,-0.525840
3.466667,-0.075791
3.500000,0.523044
3.533333,1.167688
3.566667,1.727732
3.600000,2.073832
3.633333,2.113270
3.666667,1.819148
3.700000,1.238470
3.733333,0.474333
3.766667,-0.348483
3.800000,-1.118010
3.833333,-1.755815
3.866667,-2.219320
3.900000,-2.491624
3.933333,-2.570426
3.966667,-2.464267
4.000000,-2.194902
4.033333,-1.797809
4.066667,-1.314069
4.100000,-0.774323
4.133333,-0.183656
4.166667,0.479716
4.200000,1.242734
4.233333,2.096578
4.266667,2.957715
4.300000,3.660558
4.333333,3.999270
4.366667,3.807472
4.400000,3.038259
4.433333,1.802034
4.466667,0.340825
4.500000,-1.048516
4.533333,-2.105989
4.566667,-2.677741
4.600000,-2.742333
4.633333,-2.393407
4.666667,-1.792940
4.700000,-1.115821
4.733333,-0.504666
4.766667,-0.045734
4.800000,0.233248
4.833333,0.349675
4.866667,0.345783
4.900000,0.269265
4.933333,0.160174
4.966667,0.045858
5.000000,-0.058298
5.033333,-0.146154
5.066667,-0.218139
5.100000,-0.278269
5.133333,-0.330235
5.166667,-0.372921
5.200000,-0.396441
5.233333,-0.380489
5.266667,-0.297552
5.300000,-0.122619
5.333333,0.152639
5.366667,0.506959
5.400000,0.884921
5.433333,1.205829
5.466667,1.386300
5.500000,1.369325
5.533333,1.146467
5.566667,0.761361
5.600000,0.292847
5.633333,-0.172850
5.666667,-0.567529
5.700000,-0.854258
5.733333,-1.025596
5.766667,-1.090810
5.800000,-1.060798
5.833333,-0.939718
5.866667,-0.727628
5.900000,-0.431602
5.933333,-0.077828
5.966667,0.283821
6.000000,0.587998
6.033333,0.773468
6.066667,0.805324
6.100000,0.688329
6.133333,0.464778
6.166667,0.198956
6.200000,-0.043785
6.233333,-0.214764
6.266667,-0.291063
6.300000,-0.275229
6.333333,-0.188955
6.366667,-0.065182
6.400000,0.059197
6.433333,0.150176
6.466667,0.183172
6.500000,0.148145
6.533333,0.051976
6.566667,-0.082618
6.600000,-0.222007
6.633333,-0.330229
6.666667,-0.379319
6.700000,-0.357828
6.733333,-0.274184
6.766667,-0.153495
6.800000,-0.028811
6.833333,0.070018
6.866667,0.125473
6.900000,0.135891
6.933333,0.112916
6.966667,0.075468
7.000000,0.043357
7.033333,0.032284
7.066667,0.050742
7.100000,0.098733
7.133333,0.167891
7.166667,0.242744
7.200000,0.303611
7.233333,0.331346
7.266667,0.312641
7.300000,0.243663
7.333333,0.131156
7.366667,-0.008322
7.400000,-0.150582
7.433333,-0.268000
7.466667,-0.335930
7.500000,-0.340068
7.533333,-0.282551
7.566667,-0.184276
7.600000,-0.081155
7.633333,-0.013558
7.666667,-0.011338
7.700000,-0.079810
7.733333,-0.192580
7.766667,-0.295174
7.800000,-0.320161
7.833333,-0.210382
7.866667,0.057111
7.900000,0.455292
7.933333,0.906013
7.966667,1.295132
8.000000,1.500912
8.033333,1.428597
8.066667,1.041163
8.100000,0.376339
8.133333,-0.456568
8.166667,-1.301690
8.200000,-1.998928
8.233333,-2.430451
8.266667,-2.552152
8.300000,-2.394714
8.333333,-2.033341
8.366667,-1.541601
8.400000,-0.953965
8.433333,-0.258809
8.466667,0.571025
8.500000,1.524474
8.533333,2.507234
8.566667,3.338111
8.600000,3.798804
8.633333,3.718643
8.666667,3.053936
8.700000,1.921619
8.733333,0.569287
8.766667,-0.704439
8.800000,-1.643528
8.833333,-2.105855
8.866667,-2.090889
8.900000,-1.720724
8.933333,-1.186415
8.966667,-0.681227
9.000000,-0.344350
9.033333,-0.231719
9.066667,-0.317704
9.100000,-0.519760
9.133333,-0.732837
9.166667,-0.861608
9.200000,-0.843228
9.233333,-0.658258
9.266667,-0.330860
9.300000,0.079255
9.333333,0.490751
9.366667,0.818275
9.400000,0.991170
9.433333,0.970253
9.466667,0.759627
9.500000,0.410126
9.533333,0.010976
9.566667,-0.331346
9.600000,-0.522583
9.633333,-0.509129
9.666667,-0.295165
9.700000,0.058336
9.733333,0.453245
9.766667,0.785578
9.800000,0.976071
9.833333,0.988469
9.866667,0.831155
9.900000,0.545672
9.933333,0.189329
9.966667,-0.181317
10.000000,-0.521054
10.033333,-0.798474
10.066667,-0.991990
10.100000,-1.084279
10.133333,-1.060210
10.166667,-0.910480
10.200000,-0.639376
10.233333,-0.272110
10.266667,0.143226
10.300000,0.541549
10.333333,0.853220
10.366667,1.019436
10.400000,1.006988
10.433333,0.819027
10.466667,0.498026
10.500000,0.117847
10.533333,-0.234373
10.566667,-0.481260
10.600000,-0.575838
10.633333,-0.513212
10.666667,-0.329600
10.700000,-0.089324
10.733333,0.135216
10.766667,0.283521
10.800000,0.321077
10.833333,0.244494
10.866667,0.077570
10.900000,-0.138920
10.933333,-0.358564
10.966667,-0.537309
11.000000,-0.637566
11.033333,-0.631338
11.066667,-0.505125
11.100000,-0.266409
11.133333,0.051561
11.166667,0.391407
11.200000,0.682837
11.233333,0.861433
11.266667,0.887068
11.300000,0.753393
11.333333,0.486014
11.366667,0.133715
11.400000,-0.241998
11.433333,-0.576941
11.466667,-0.813708
11.500000,-0.910119
11.533333,-0.845882
11.566667,-0.626824
11.600000,-0.285985
11.633333,0.119256
11.666667,0.514524
11.700000,0.820597
11.733333,0.970047
11.766667,0.925650
11.800000,0.694014
11.833333,0.327095
11.866667,-0.090681
11.900000,-0.464575
11.933333,-0.712375
11.966667,-0.781185
12.000000,-0.655638
12.033333,-0.358341
12.066667,0.055389
12.100000,0.507299
12.133333,0.910281
12.166667,1.185353
12.200000,1.277047
12.233333,1.161739
12.266667,0.847102
12.300000,0.365921
12.333333,-0.230452
12.366667,-0.875940
12.400000,-1.492143
12.433333,-1.994564
12.466667,-2.307380
12.500000,-2.384687
12.533333,-2.227470
12.566667,-1.883668
12.600000,-1.426408
12.633333,-0.917932
12.666667,-0.376771
12.700000,0.231282
12.733333,0.965399
12.766667,1.851390
12.800000,2.822802
12.833333,3.701562
12.866667,4.241558
12.900000,4.222410
12.933333,3.548924
12.966667,2.305069
13.000000,0.734695
13.033333,-0.839848
13.066667,-2.120854
13.100000,-2.916710
13.133333,-3.176194
13.166667,-2.973476
13.200000,-2.459334
13.233333,-1.802052
13.266667,-1.139706
13.300000,-0.556617
13.333333,-0.085363
13.366667,0.273587
13.400000,0.527420
13.433333,0.674527
13.466667,0.703869
13.500000,0.608772
13.533333,0.404603
13.566667,0.137227
13.600000,-0.124360
13.633333,-0.307753
13.666667,-0.359679
13.700000,-0.261984
13.733333,-0.035976
13.766667,0.264571
13.800000,0.567644
13.833333,0.800022
13.866667,0.904256
13.900000,0.852785
13.933333,0.654647
13.966667,0.351111
14.000000,0.001797
14.033333,-0.332185
14.066667,-0.601435
14.100000,-0.774604
14.133333,-0.838240
14.166667,-0.792651
14.200000,-0.647373
14.233333,-0.418987
14.266667,-0.131562
14.300000,0.182078
14.333333,0.480699
14.366667,0.718718
14.400000,0.855089
14.433333,0.865282
14.466667,0.750891
14.500000,0.540724
14.533333,0.281505
14.566667,0.022051
14.600000,-0.202195
14.633333,-0.377671
14.666667,-0.510284
14.700000,-0.613294
14.733333,-0.692467
14.766667,-0.737235
14.800000,-0.722715
14.833333,-0.621164
14.866667,-0.417334
14.900000,-0.120965
14.933333,0.229073
14.966667,0.571031
15.000000,0.834582
15.033333,0.958395
15.066667,0.906552
15.100000,0.680059
15.133333,0.319522
15.166667,-0.103455
15.200000,-0.503961
15.233333,-0.804205
15.266667,-0.950185
15.300000,-0.920898
15.333333,-0.729320
15.366667,-0.416563
15.400000,-0.041897
15.433333,0.328858
15.466667,0.635058
15.500000,0.831534
15.533333,0.894978
15.566667,0.824866
15.600000,0.640352
15.633333,0.375784
15.666667,0.075430
15.700000,-0.213728
15.733333,-0.450686
15.766667,-0.607711
15.800000,-0.673497
15.833333,-0.651697
15.866667,-0.556327
15.900000,-0.406595
15.933333,-0.223641
15.966667,-0.029777
16.000000,0.151705
16.033333,0.298615
16.066667,0.394033
16.100000,0.430451
16.133333,0.411863
16.166667,0.353122
16.200000,0.276585
16.233333,0.206742
16.266667,0.164463
16.300000,0.162282
16.333333,0.200997
16.366667,0.268184
16.400000,0.340734
16.433333,0.392169
16.466667,0.401005
16.500000,0.354131
16.533333,0.243132
16.566667,0.058226
16.600000,-0.212214
16.633333,-0.571663
16.666667,-0.998508
16.700000,-1.434706
16.733333,-1.793821
16.766667,-1.990452
16.800000,-1.975961
16.833333,-1.758034
16.866667,-1.390627
16.900000,-0.938719
16.933333,-0.437654
16.966667,0.127644
17.000000,0.805670
17.033333,1.626037
17.066667,2.539387
17.100000,3.389583
17.133333,3.945344
17.166667,3.985360
17.200000,3.397872
17.233333,2.243877
17.266667,0.750868
17.300000,-0.759411
17.333333,-1.974395
17.366667,-2.682108
17.400000,-2.820162
17.433333,-2.472884
17.466667,-1.825888
17.500000,-1.099306
17.533333,-0.483794
17.566667,-0.097612
17.600000,0.027926
17.633333,-0.062408
17.666667,-0.275309
17.700000,-0.502886
17.733333,-0.653255
17.766667,-0.670415
17.800000,-0.540360
17.833333,-0.285323
17.866667,0.048611
17.900000,0.404740
17.933333,0.726100
17.966667,0.962669
18.000000,1.077673
18.033333,1.054610
18.066667,0.903313
18.100000,0.660913
18.133333,0.384869
18.166667,0.138811
18.200000,-0.025176
18.233333,-0.082607
18.266667,-0.045447
18.300000,0.040372
18.333333,0.109248
18.366667,0.098107
18.400000,-0.030630
18.433333,-0.273490
18.466667,-0.584026
18.500000,-0.885829
18.533333,-1.095882
18.566667,-1.149819
18.600000,-1.020505
18.633333,-0.724540
18.666667,-0.316048
18.700000,0.128648
18.733333,0.530258
18.766667,0.825261
18.800000,0.980963
18.833333,1.003448
18.866667,0.934382
18.900000,0.834564
18.933333,0.757463
18.966667,0.722577
19.000000,0.702394
19.033333,0.633776
19.066667,0.452996
19.100000,0.137903
19.133333,-0.267819
19.166667,-0.665279
19.200000,-0.942441
19.233333,-1.026291
19.266667,-0.919371
19.300000,-0.703117
19.333333,-0.505201
19.366667,-0.444257
19.400000,-0.576645
19.433333,-0.869066
19.466667,-1.207351
19.500000,-1.434901
19.533333,-1.404465
19.566667,-1.026526
19.600000,-0.302197
19.633333,0.666284
19.666667,1.690745
19.700000,2.538331
19.733333,2.993710
19.766667,2.926564
19.800000,2.338720
19.833333,1.367713
19.866667,0.242506
19.900000,-0.789532
19.933333,-1.533799
19.966667,-1.892502
20.000000,-1.871461
20.033333,-1.555459
20.066667,-1.068087
20.100000,-0.533207
20.133333,-0.048776
20.166667,0.324474
20.200000,0.562146
20.233333,0.667813
20.266667,0.662616
20.300000,0.577026
20.333333,0.445255
20.366667,0.300035
20.400000,0.166511
20.433333,0.056853
20.466667,-0.031844
20.500000,-0.114384
20.533333,-0.208109
20.566667,-0.319125
20.600000,-0.430200
20.633333,-0.498804
20.666667,-0.470519
20.700000,-0.304854
20.733333,-0.002506
20.766667,0.379817
20.800000,0.736619
20.833333,0.942862
20.866667,0.895226
20.900000,0.550585
20.933333,-0.051932
20.966667,-0.794764
21.000000,-1.513992
21.033333,-2.050138
21.066667,-2.296654
21.100000,-2.224161
21.133333,-1.870861
21.166667,-1.307109
21.200000,-0.595091
21.233333,0.232224
21.266667,1.157642
21.300000,2.137370
21.333333,3.059426
21.366667,3.740518
21.400000,3.978047
21.433333,3.636428
21.466667,2.721330
21.500000,1.399332
21.533333,-0.049942
21.566667,-1.325913
21.600000,-2.200204
21.633333,-2.574009
21.666667,-2.485004
21.700000,-2.070900
21.733333,-1.509976
21.766667,-0.962565
21.800000,-0.532537
21.833333,-0.256723
21.866667,-0.118108
21.900000,-0.071104
21.933333,-0.066646
21.966667,-0.068844
22.000000,-0.060252
22.033333,-0.037946
22.066667,-0.005977
22.100000,0.030471
22.133333,0.067434
22.166667,0.102579
22.200000,0.135462
22.233333,0.167730
22.266667,0.202527
22.300000,0.242690
22.333333,0.288069
22.366667,0.333123
22.400000,0.366689
22.433333,0.375267
22.466667,0.348749
22.500000,0.285528
22.533333,0.194208
22.566667,0.091191
22.600000,-0.004682
22.633333,-0.078038
22.666667,-0.120692
22.700000,-0.131716
22.733333,-0.114836
22.766667,-0.075662
22.800000,-0.020564
22.833333,0.042779
22.866667,0.104293
22.900000,0.151440
22.933333,0.171449
22.966667,0.155487
23.000000,0.102360
23.033333,0.019299
23.066667,-0.080046
23.100000,-0.178441
23.133333,-0.257653
23.166667,-0.301376
23.200000,-0.299015
23.233333,-0.249496
23.266667,-0.163558
23.300000,-0.062873
23.333333,0.025188
23.366667,0.076513
23.400000,0.079422
23.433333,0.039352
23.466667,-0.023314
23.500000,-0.080960
23.533333,-0.108643
23.566667,-0.092726
23.600000,-0.035379
23.633333,0.046527
23.666667,0.127326
23.700000,0.180785
23.733333,0.188169
23.766667,0.144208
23.800000,0.059186
23.833333,-0.043990
23.866667,-0.136815
23.900000,-0.193563
23.933333,-0.198297
23.966667,-0.148865
24.000000,-0.056996
24.033333,0.055420
24.066667,0.162433
24.100000,0.240395
24.133333,0.273316
24.166667,0.256600
24.200000,0.198220
24.233333,0.116181
24.266667,0.032600
24.300000,-0.033411
24.333333,-0.071316
24.366667,-0.081105
24.400000,-0.070862
24.433333,-0.051155
24.466667,-0.029583
24.500000,-0.008775
24.533333,0.011572
24.566667,0.030932
24.600000,0.045170
24.633333,0.046265
24.666667,0.024765
24.700000,-0.025827
24.733333,-0.104644
24.766667,-0.200923
24.800000,-0.293864
24.833333,-0.354414
24.866667,-0.349258
24.900000,-0.248100
24.933333,-0.034302
24.966667,0.283279
25.000000,0.661371
25.033333,1.021414
25.066667,1.261307
25.100000,1.280537
25.133333,1.012825
25.166667,0.455143
25.200000,-0.319094
25.233333,-1.171417
25.266667,-1.934885
25.300000,-2.463919
25.333333,-2.675532
25.366667,-2.562493
25.400000,-2.173686
25.433333,-1.574643
25.466667,-0.811794
25.500000,0.096871
25.533333,1.135187
25.566667,2.239425
25.600000,3.261047
25.633333,3.978700
25.666667,4.169445
25.700000,3.708376
25.733333,2.641970
25.766667,1.192030
25.800000,-0.314123
25.833333,-1.552343
25.866667,-2.300038
25.900000,-2.489002
25.933333,-2.202859
25.966667,-1.629418
26.000000,-0.989331
26.033333,-0.466454
26.066667,-0.162339
26.100000,-0.086352
26.133333,-0.177569
26.166667,-0.343189
26.200000,-0.495899
26.233333,-0.577898
26.266667,-0.567231
26.300000,-0.469711
26.333333,-0.304834
26.366667,-0.094480
26.400000,0.141090
26.433333,0.380961
26.466667,0.599417
26.500000,0.764907
26.533333,0.845692
26.566667,0.821410
26.600000,0.694226
26.633333,0.491490
26.666667,0.257005
26.700000,0.035598
26.733333,-0.140914
26.766667,-0.260164
26.800000,-0.326225
26.833333,-0.349966
26.866667,-0.339022
26.900000,-0.293629
26.933333,-0.210393
26.966667,-0.090757
27.000000,0.051807
27.033333,0.191032
27.066667,0.295391
27.100000,0.341003
27.133333,0.322801
27.166667,0.256728
27.200000,0.171145
27.233333,0.092369
27.266667,0.032383
27.300000,-0.014735
27.333333,-0.065547
27.366667,-0.132815
27.400000,-0.212562
27.433333,-0.281422
27.466667,-0.307106
27.500000,-0.266897
27.533333,-0.164370
27.566667,-0.034773
27.600000,0.066095
27.633333,0.086774
27.666667,0.007437
27.700000,-0.145200
27.733333,-0.304671
27.766667,-0.391254
27.800000,-0.346365
27.833333,-0.159442
27.866667,0.124751
27.900000,0.421706
27.933333,0.638491
27.966667,0.706912
28.000000,0.605407
28.033333,0.363115
28.066667,0.047130
28.100000,-0.260590
28.133333,-0.487796
28.166667,-0.590141
28.200000,-0.558753
28.233333,-0.417100
28.266667,-0.209906
28.300000,0.011489
28.333333,0.202531
28.366667,0.334123
28.400000,0.395479
28.433333,0.391993
28.466667,0.339476
28.500000,0.256643
28.533333,0.158632
28.566667,0.054183
28.600000,-0.053009
28.633333,-0.160301
28.666667,-0.261519
28.700000,-0.343767
28.733333,-0.387748
28.766667,-0.372970
28.800000,-0.286825
28.833333,-0.133923
28.866667,0.058955
28.900000,0.246159
28.933333,0.375967
28.966667,0.409564
29.000000,0.338163
29.033333,0.189461
29.066667,0.019412
29.100000,-0.107471
29.133333,-0.140991
29.166667,-0.061991
29.200000,0.113343
29.233333,0.341675
29.266667,0.566848
29.300000,0.732190
29.333333,0.787076
29.366667,0.690541
29.400000,0.417569
29.433333,-0.029058
29.466667,-0.605735
29.500000,-1.225072
29.533333,-1.773262
29.566667,-2.145544
29.600000,-2.282091
29.633333,-2.182815
29.666667,-1.891541
29.700000,-1.458723
29.733333,-0.905247
29.766667,-0.211478
29.800000,0.655878
29.833333,1.688558
29.866667,2.785123
29.900000,3.741256
29.933333,4.301171
29.966667,4.253775
30.000000,3.527936
30.033333,2.237572
30.066667,0.652677
30.100000,-0.888884
30.133333,-2.087200
30.166667,-2.761457
30.200000,-2.882516
30.233333,-2.555315
30.266667,-1.965903
30.300000,-1.315882
30.333333,-0.766156
30.366667,-0.404073
30.400000,-0.237655
30.433333,-0.212207
30.466667,-0.240313
30.500000,-0.235298
30.533333,-0.139200
30.566667,0.061134
30.600000,0.332770
30.633333,0.609812
30.666667,0.817174
30.700000,0.897390
30.733333,0.830189
30.766667,0.636759
30.800000,0.368287
30.833333,0.085941
30.866667,-0.158287
30.900000,-0.333146
30.933333,-0.429797
30.966667,-0.455440
31.000000,-0.423729
31.033333,-0.347112
31.066667,-0.233843
31.100000,-0.089662
31.133333,0.077515
31.166667,0.252637
31.200000,0.411818
31.233333,0.526299
31.266667,0.571036
31.300000,0.533833
31.333333,0.420809
31.366667,0.256022
31.400000,0.075101
31.433333,-0.085210
31.466667,-0.197647
31.500000,-0.250986
31.533333,-0.250644
31.566667,-0.214197
31.600000,-0.164015
31.633333,-0.119556
31.666667,-0.092016
31.700000,-0.083042
31.733333,-0.087055
31.766667,-0.095241
31.800000,-0.099643
31.833333,-0.096445
31.866667,-0.087288
31.900000,-0.077650
31.933333,-0.073002
31.966667,-0.075193
32.000000,-0.081153
32.033333,-0.084279
32.066667,-0.077577
32.100000,-0.057113
32.133333,-0.024022
32.166667,0.016068
32.200000,0.055652
32.233333,0.088226
32.266667,0.110130
32.300000,0.121038
32.333333,0.123173
32.366667,0.119460
32.400000,0.111581
32.433333,0.099164
32.466667,0.080354
32.500000,0.053207
32.533333,0.017582
32.566667,-0.022752
32.600000,-0.059116
32.633333,-0.079701
32.666667,-0.074002
32.700000,-0.037758
32.733333,0.023916
32.766667,0.096562
32.800000,0.160080
32.833333,0.195337
32.866667,0.191065
32.900000,0.147767
32.933333,0.077169
32.966667,-0.001858
33.000000,-0.069280
33.033333,-0.110404
33.066667,-0.121281
33.100000,-0.110982
33.133333,-0.099477
33.166667,-0.111210
33.200000,-0.165684
33.233333,-0.267428
33.266667,-0.398920
33.300000,-0.520230
33.333333,-0.577157
33.366667,-0.516265
33.400000,-0.302567
33.433333,0.065472
33.466667,0.548262
33.500000,1.067372
33.533333,1.517780
33.566667,1.788285
33.600000,1.787120
33.633333,1.467754
33.666667,0.847326
33.700000,0.010228
33.733333,-0.906609
33.766667,-1.744929
33.800000,-2.365679
33.833333,-2.686044
33.866667,-2.697524
33.900000,-2.455210
33.933333,-2.041504
33.966667,-1.520792
34.000000,-0.907994
34.033333,-0.170127
34.066667,0.733965
34.100000,1.791852
34.133333,2.888555
34.166667,3.806420
34.200000,4.286900
34.233333,4.131718
34.266667,3.295250
34.300000,1.920737
34.333333,0.300893
34.366667,-1.217682
34.400000,-2.341674
34.433333,-2.907248
34.466667,-2.904083
34.500000,-2.449975
34.533333,-1.734627
34.566667,-0.956853
