Time_Sec,Amplitude
0.000000,0.000017
0.033333,-0.000293
0.066667,-0.000557
0.100000,-0.000735
0.133333,-0.000808
0.166667,-0.000773
0.200000,-0.000648
0.233333,-0.000467
0.266667,-0.000267
0.300000,-0.000087
0.333333,0.000044
0.366667,0.000114
0.400000,0.000127
0.433333,0.000099
0.466667,0.000054
0.500000,0.000015
0.533333,-0.000005
0.566667,-0.000004
0.600000,0.000012
0.633333,0.000031
0.666667,0.000043
0.700000,0.000042
0.733333,0.000032
0.766667,0.000021
0.800000,0.000019
0.833333,0.000030
0.866667,0.000053
0.900000,0.000079
0.933333,0.000096
0.966667,0.000096
1.000000,0.000073
1.033333,0.000032
1.066667,-0.000018
1.100000,-0.000060
1.133333,-0.000084
1.166667,-0.000079
1.200000,-0.000048
1.233333,0.000001
1.266667,0.000055
1.300000,0.000100
1.333333,0.000126
1.366667,0.000133
1.400000,0.000123
1.433333,0.000106
1.466667,0.000088
1.500000,0.000073
1.533333,0.000062
1.566667,0.000048
1.600000,0.000026
1.633333,-0.000008
1.666667,-0.000053
1.700000,-0.000100
1.733333,-0.000136
1.766667,-0.000150
1.800000,-0.000137
1.833333,-0.000098
1.866667,-0.000043
1.900000,0.000015
1.933333,0.000059
1.966667,0.000076
2.000000,0.000060
2.033333,0.000017
2.066667,-0.000041
2.100000,-0.000097
2.133333,-0.000132
2.166667,-0.000137
2.200000,-0.000111
2.233333,-0.000062
2.266667,-0.000004
2.300000,0.000047
2.333333,0.000079
2.366667,0.000088
2.400000,0.000078
2.433333,0.000059
2.466667,0.000041
2.500000,0.000033
2.533333,0.000034
2.566667,0.000042
2.600000,0.000045
2.633333,0.000036
2.666667,0.000009
2.700000,-0.000033
2.733333,-0.000078
2.766667,-0.000111
2.800000,-0.000120
2.833333,-0.000098
2.866667,-0.000047
2.900000,0.000021
2.933333,0.000088
2.966667,0.000135
3.000000,0.000151
3.033333,0.000132
3.066667,0.000085
3.100000,0.000024
3.133333,-0.000034
3.166667,-0.000077
3.200000,-0.000095
3.233333,-0.000087
3.266667,-0.000061
3.300000,-0.000028
3.333333,0.000001
3.366667,0.000018
3.400000,0.000020
3.433333,0.000013
3.466667,0.000001
3.500000,-0.000007
3.533333,-0.000008
3.566667,-0.000002
3.600000,0.000005
3.633333,0.000006
3.666667,-0.000003
3.700000,-0.000021
3.733333,-0.000041
3.766667,-0.000053
3.800000,-0.000050
3.833333,-0.000026
3.866667,0.000014
3.900000,0.000062
3.933333,0.000102
3.966667,0.000125
4.000000,0.000122
4.033333,0.000096
4.066667,0.000055
4.100000,0.000013
4.133333,-0.000020
4.166667,-0.000038
4.200000,-0.000041
4.233333,-0.000034
4.266667,-0.000027
4.300000,-0.000029
4.333333,-0.000045
4.366667,-0.000072
4.400000,-0.000100
4.433333,-0.000118
4.466667,-0.000117
4.500000,-0.000093
4.533333,-0.000049
4.566667,0.000005
4.600000,0.000054
4.633333,0.000085
4.666667,0.000092
4.700000,0.000076
4.733333,0.000047
4.766667,0.000017
4.800000,-0.000003
4.833333,-0.000007
4.866667,0.000006
4.900000,0.000030
4.933333,0.000053
4.966667,0.000066
5.000000,0.000061
5.033333,0.000037
5.066667,0.000001
5.100000,-0.000036
5.133333,-0.000063
5.166667,-0.000072
5.200000,-0.000060
5.233333,-0.000033
5.266667,0.000000
5.300000,0.000027
5.333333,0.000039
5.366667,0.000033
5.400000,0.000014
5.433333,-0.000010
5.466667,-0.000028
5.500000,-0.000032
5.533333,-0.000023
5.566667,-0.000004
5.600000,0.000014
5.633333,0.000022
5.666667,0.000014
5.700000,-0.000007
5.733333,-0.000033
5.766667,-0.000052
5.800000,-0.000054
5.833333,-0.000036
5.866667,0.000002
5.900000,0.000048
5.933333,0.000088
5.966667,0.000111
6.000000,0.000105
6.033333,0.000073
6.066667,0.000023
6.100000,-0.000031
6.133333,-0.000072
6.166667,-0.000090
6.200000,-0.000082
6.233333,-0.000052
6.266667,-0.000013
6.300000,0.000021
6.333333,0.000040
6.366667,0.000040
6.400000,0.000023
6.433333,-0.000001
6.466667,-0.000020
6.500000,-0.000028
6.533333,-0.000023
6.566667,-0.000008
6.600000,0.000007
6.633333,0.000012
6.666667,0.000001
6.700000,-0.000025
6.733333,-0.000057
6.766667,-0.000083
6.800000,-0.000090
6.833333,-0.000071
6.866667,-0.000026
6.900000,0.000035
6.933333,0.000095
6.966667,0.000136
7.000000,0.000146
7.033333,0.000121
7.066667,0.000069
7.100000,0.000007
7.133333,-0.000047
7.166667,-0.000080
7.200000,-0.000086
7.233333,-0.000069
7.266667,-0.000039
7.300000,-0.000011
7.333333,0.000005
7.366667,0.000004
7.400000,-0.000008
7.433333,-0.000024
7.466667,-0.000033
7.500000,-0.000027
7.533333,-0.000003
7.566667,0.000033
7.600000,0.000071
7.633333,0.000098
7.666667,0.000106
7.700000,0.000092
7.733333,0.000061
7.766667,0.000025
7.800000,-0.000007
7.833333,-0.000026
7.866667,-0.000029
7.900000,-0.000019
7.933333,-0.000006
7.966667,-0.000000
8.000000,-0.000008
8.033333,-0.000030
8.066667,-0.000060
8.100000,-0.000088
8.133333,-0.000104
8.166667,-0.000102
8.200000,-0.000083
8.233333,-0.000052
8.266667,-0.000019
8.300000,0.000005
8.333333,0.000014
8.366667,0.000008
8.400000,-0.000006
8.433333,-0.000020
8.466667,-0.000024
8.500000,-0.000013
8.533333,0.000012
8.566667,0.000047
8.600000,0.000081
8.633333,0.000104
8.666667,0.000110
8.700000,0.000097
8.733333,0.000070
8.766667,0.000040
8.800000,0.000014
8.833333,0.000000
8.866667,-0.000002
8.900000,0.000003
8.933333,0.000007
8.966667,0.000002
9.000000,-0.000017
9.033333,-0.000046
9.066667,-0.000076
9.100000,-0.000097
9.133333,-0.000098
9.166667,-0.000074
9.200000,-0.000031
9.233333,0.000022
9.266667,0.000070
9.300000,0.000099
9.333333,0.000100
9.366667,0.000076
9.400000,0.000034
9.433333,-0.000011
9.466667,-0.000043
9.500000,-0.000055
9.533333,-0.000045
9.566667,-0.000018
9.600000,0.000013
9.633333,0.000036
9.666667,0.000040
9.700000,0.000025
9.733333,-0.000005
9.766667,-0.000039
9.800000,-0.000066
9.833333,-0.000075
9.866667,-0.000066
9.900000,-0.000041
9.933333,-0.000012
9.966667,0.000010
10.000000,0.000017
10.033333,0.000005
10.066667,-0.000018
10.100000,-0.000040
10.133333,-0.000052
10.166667,-0.000045
10.200000,-0.000018
10.233333,0.000021
10.266667,0.000060
10.300000,0.000088
10.333333,0.000096
10.366667,0.000082
10.400000,0.000052
10.433333,0.000015
10.466667,-0.000016
10.500000,-0.000032
10.533333,-0.000029
10.566667,-0.000009
10.600000,0.000018
10.633333,0.000043
10.666667,0.000055
10.700000,0.000051
10.733333,0.000030
10.766667,0.000001
10.800000,-0.000028
10.833333,-0.000047
10.866667,-0.000050
10.900000,-0.000039
10.933333,-0.000017
10.966667,0.000004
11.000000,0.000017
11.033333,0.000016
11.066667,0.000005
11.100000,-0.000011
11.133333,-0.000024
11.166667,-0.000028
11.200000,-0.000021
11.233333,-0.000007
11.266667,0.000008
11.300000,0.000015
11.333333,0.000009
11.366667,-0.000010
11.400000,-0.000037
11.433333,-0.000063
11.466667,-0.000077
11.500000,-0.000075
11.533333,-0.000054
11.566667,-0.000020
11.600000,0.000016
11.633333,0.000044
11.666667,0.000054
11.700000,0.000048
11.733333,0.000032
11.766667,0.000015
11.800000,0.000008
11.833333,0.000015
11.866667,0.000036
11.900000,0.000063
11.933333,0.000086
11.966667,0.000094
12.000000,0.000080
12.033333,0.000046
12.066667,0.000001
12.100000,-0.000043
12.133333,-0.000073
12.166667,-0.000082
12.200000,-0.000068
12.233333,-0.000038
12.266667,-0.000005
12.300000,0.000020
12.333333,0.000028
12.366667,0.000017
12.400000,-0.000007
12.433333,-0.000035
12.466667,-0.000056
12.500000,-0.000062
12.533333,-0.000053
12.566667,-0.000031
12.600000,-0.000005
12.633333,0.000016
12.666667,0.000025
12.700000,0.000020
12.733333,0.000004
12.766667,-0.000014
12.800000,-0.000028
12.833333,-0.000031
12.866667,-0.000021
12.900000,-0.000000
12.933333,0.000025
12.966667,0.000046
13.000000,0.000058
13.033333,0.000058
13.066667,0.000048
13.100000,0.000034
13.133333,0.000023
13.166667,0.000019
13.200000,0.000023
13.233333,0.000034
13.266667,0.000044
13.300000,0.000047
13.333333,0.000039
13.366667,0.000020
13.400000,-0.000007
13.433333,-0.000036
13.466667,-0.000058
13.500000,-0.000070
13.533333,-0.000069
13.566667,-0.000060
13.600000,-0.000047
13.633333,-0.000039
13.666667,-0.000039
13.700000,-0.000047
13.733333,-0.000057
13.766667,-0.000059
13.800000,-0.000048
13.833333,-0.000022
13.866667,0.000015
13.900000,0.000054
13.933333,0.000081
13.966667,0.000088
14.000000,0.000070
14.033333,0.000034
14.066667,-0.000008
14.100000,-0.000042
14.133333,-0.000057
14.166667,-0.000047
14.200000,-0.000016
14.233333,0.000026
14.266667,0.000064
14.300000,0.000084
14.333333,0.000078
14.366667,0.000048
14.400000,0.000003
14.433333,-0.000039
14.466667,-0.000063
14.500000,-0.000058
14.533333,-0.000025
14.566667,0.000028
14.600000,0.000081
14.633333,0.000117
14.666667,0.000122
14.700000,0.000093
14.733333,0.000038
14.766667,-0.000026
14.800000,-0.000081
14.833333,-0.000112
14.866667,-0.000113
14.900000,-0.000087
14.933333,-0.000047
14.966667,-0.000007
15.000000,0.000018
15.033333,0.000024
15.066667,0.000011
15.100000,-0.000011
15.133333,-0.000032
15.166667,-0.000042
15.200000,-0.000040
15.233333,-0.000028
15.266667,-0.000015
15.300000,-0.000009
15.333333,-0.000016
15.366667,-0.000034
15.400000,-0.000052
15.433333,-0.000063
15.466667,-0.000057
15.500000,-0.000031
15.533333,0.000010
15.566667,0.000057
15.600000,0.000096
15.633333,0.000117
15.666667,0.000113
15.700000,0.000089
15.733333,0.000053
15.766667,0.000020
15.800000,-0.000000
15.833333,-0.000001
15.866667,0.000017
15.900000,0.000043
15.933333,0.000066
15.966667,0.000073
16.000000,0.000059
16.033333,0.000023
16.066667,-0.000024
16.100000,-0.000071
16.133333,-0.000103
16.166667,-0.000113
16.200000,-0.000100
16.233333,-0.000067
16.266667,-0.000028
16.300000,0.000005
16.333333,0.000023
16.366667,0.000023
16.400000,0.000008
16.433333,-0.000011
16.466667,-0.000025
16.500000,-0.000028
16.533333,-0.000018
16.566667,-0.000001
16.600000,0.000017
16.633333,0.000026
16.666667,0.000022
16.700000,0.000006
16.733333,-0.000014
16.766667,-0.000031
16.800000,-0.000035
16.833333,-0.000025
16.866667,-0.000002
16.900000,0.000026
16.933333,0.000050
16.966667,0.000061
17.000000,0.000055
17.033333,0.000036
17.066667,0.000009
17.100000,-0.000015
17.133333,-0.000030
17.166667,-0.000032
17.200000,-0.000023
17.233333,-0.000008
17.266667,0.000006
17.300000,0.000011
17.333333,0.000002
17.366667,-0.000017
17.400000,-0.000039
17.433333,-0.000053
17.466667,-0.000050
17.500000,-0.000027
17.533333,0.000013
17.566667,0.000061
17.600000,0.000103
17.633333,0.000125
17.666667,0.000120
17.700000,0.000087
17.733333,0.000037
17.766667,-0.000018
17.800000,-0.000061
17.833333,-0.000084
17.866667,-0.000082
17.900000,-0.000061
17.933333,-0.000031
17.966667,-0.000004
18.000000,0.000011
18.033333,0.000010
18.066667,-0.000003
18.100000,-0.000020
18.133333,-0.000031
18.166667,-0.000031
18.200000,-0.000018
18.233333,0.000003
18.266667,0.000023
18.300000,0.000033
18.333333,0.000026
18.366667,0.000004
18.400000,-0.000027
18.433333,-0.000055
18.466667,-0.000070
18.500000,-0.000067
18.533333,-0.000047
18.566667,-0.000016
18.600000,0.000013
18.633333,0.000031
18.666667,0.000032
18.700000,0.000017
18.733333,-0.000004
18.766667,-0.000021
18.800000,-0.000024
18.833333,-0.000009
18.866667,0.000020
18.900000,0.000057
18.933333,0.000090
18.966667,0.000110
19.000000,0.000111
19.033333,0.000094
19.066667,0.000065
19.100000,0.000034
19.133333,0.000010
19.166667,-0.000000
19.200000,0.000003
19.233333,0.000014
19.266667,0.000023
19.300000,0.000021
19.333333,0.000000
19.366667,-0.000037
19.400000,-0.000084
19.433333,-0.000127
19.466667,-0.000154
19.500000,-0.000155
19.533333,-0.000131
19.566667,-0.000087
19.600000,-0.000036
19.633333,0.000009
19.666667,0.000035
19.700000,0.000039
19.733333,0.000027
19.766667,0.000007
19.800000,-0.000008
19.833333,-0.000008
19.866667,0.000008
19.900000,0.000036
19.933333,0.000066
19.966667,0.000086
20.000000,0.000087
20.033333,0.000067
20.066667,0.000033
20.100000,-0.000003
20.133333,-0.000030
20.166667,-0.000038
20.200000,-0.000026
20.233333,0.000001
20.266667,0.000033
20.300000,0.000059
20.333333,0.000068
20.366667,0.000058
20.400000,0.000035
20.433333,0.000007
20.466667,-0.000015
20.500000,-0.000023
20.533333,-0.000015
20.566667,0.000002
20.600000,0.000017
20.633333,0.000020
20.666667,0.000003
20.700000,-0.000032
20.733333,-0.000075
20.766667,-0.000112
20.800000,-0.000131
20.833333,-0.000124
20.866667,-0.000091
20.900000,-0.000043
20.933333,0.000006
20.966667,0.000043
21.000000,0.000057
21.033333,0.000048
21.066667,0.000023
21.100000,-0.000003
21.133333,-0.000019
21.166667,-0.000014
21.200000,0.000013
21.233333,0.000055
21.266667,0.000098
21.300000,0.000128
21.333333,0.000131
21.366667,0.000103
21.400000,0.000050
21.433333,-0.000014
21.466667,-0.000071
21.500000,-0.000106
21.533333,-0.000112
21.566667,-0.000089
21.600000,-0.000048
21.633333,-0.000005
21.666667,0.000028
21.700000,0.000040
21.733333,0.000033
21.766667,0.000014
21.800000,-0.000008
21.833333,-0.000022
21.866667,-0.000022
21.900000,-0.000008
21.933333,0.000011
21.966667,0.000027
22.000000,0.000030
22.033333,0.000018
22.066667,-0.000005
22.100000,-0.000029
22.133333,-0.000044
22.166667,-0.000043
22.200000,-0.000024
22.233333,0.000007
22.266667,0.000040
22.300000,0.000064
22.333333,0.000068
22.366667,0.000053
22.400000,0.000022
22.433333,-0.000014
22.466667,-0.000044
22.500000,-0.000058
22.533333,-0.000053
22.566667,-0.000032
22.600000,-0.000005
22.633333,0.000016
22.666667,0.000023
22.700000,0.000012
22.733333,-0.000012
22.766667,-0.000039
22.800000,-0.000058
22.833333,-0.000059
22.866667,-0.000041
22.900000,-0.000009
22.933333,0.000024
22.966667,0.000048
23.000000,0.000055
23.033333,0.000044
23.066667,0.000023
23.100000,0.000002
23.133333,-0.000009
23.166667,-0.000004
23.200000,0.000014
23.233333,0.000040
23.266667,0.000063
23.300000,0.000074
23.333333,0.000067
23.366667,0.000044
23.400000,0.000011
23.433333,-0.000023
23.466667,-0.000046
23.500000,-0.000055
23.533333,-0.000049
23.566667,-0.000034
23.600000,-0.000020
23.633333,-0.000015
23.666667,-0.000024
23.700000,-0.000044
23.733333,-0.000067
23.766667,-0.000081
23.800000,-0.000079
23.833333,-0.000056
23.866667,-0.000016
23.900000,0.000031
23.933333,0.000070
23.966667,0.000091
24.000000,0.000087
24.033333,0.000061
24.066667,0.000023
24.100000,-0.000015
24.133333,-0.000038
24.166667,-0.000041
24.200000,-0.000022
24.233333,0.000011
24.266667,0.000044
24.300000,0.000065
24.333333,0.000065
24.366667,0.000044
24.400000,0.000010
24.433333,-0.000023
24.466667,-0.000040
24.500000,-0.000036
24.533333,-0.000012
24.566667,0.000022
24.600000,0.000054
24.633333,0.000070
24.666667,0.000064
24.700000,0.000036
24.733333,-0.000006
24.766667,-0.000050
24.800000,-0.000084
24.833333,-0.000098
24.866667,-0.000091
24.900000,-0.000068
24.933333,-0.000037
24.966667,-0.000011
25.000000,-0.000000
25.033333,-0.000005
25.066667,-0.000022
25.100000,-0.000040
25.133333,-0.000050
25.166667,-0.000042
25.200000,-0.000017
25.233333,0.000020
25.266667,0.000056
25.300000,0.000080
25.333333,0.000083
25.366667,0.000065
25.400000,0.000033
25.433333,0.000002
25.466667,-0.000018
25.500000,-0.000018
25.533333,-0.000000
25.566667,0.000029
25.600000,0.000059
25.633333,0.000076
25.666667,0.000072
25.700000,0.000046
25.733333,0.000005
25.766667,-0.000036
25.800000,-0.000067
25.833333,-0.000076
25.866667,-0.000064
25.900000,-0.000036
25.933333,-0.000002
25.966667,0.000025
26.000000,0.000035
26.033333,0.000027
26.066667,0.000004
26.100000,-0.000021
26.133333,-0.000039
26.166667,-0.000040
26.200000,-0.000022
26.233333,0.000009
26.266667,0.000044
26.300000,0.000068
26.333333,0.000074
26.366667,0.000057
26.400000,0.000024
26.433333,-0.000017
26.466667,-0.000054
26.500000,-0.000077
26.533333,-0.000084
26.566667,-0.000076
26.600000,-0.000060
26.633333,-0.000043
26.666667,-0.000033
26.700000,-0.000029
26.733333,-0.000029
26.766667,-0.000024
26.800000,-0.000011
26.833333,0.000013
26.866667,0.000045
26.900000,0.000076
26.933333,0.000097
26.966667,0.000098
27.000000,0.000078
27.033333,0.000038
27.066667,-0.000011
27.100000,-0.000055
27.133333,-0.000083
27.166667,-0.000085
27.200000,-0.000062
27.233333,-0.000020
27.266667,0.000029
27.300000,0.000071
27.333333,0.000096
27.366667,0.000098
27.400000,0.000082
27.433333,0.000055
27.466667,0.000026
27.500000,0.000004
27.533333,-0.000009
27.566667,-0.000013
27.600000,-0.000013
27.633333,-0.000015
27.666667,-0.000023
27.700000,-0.000036
27.733333,-0.000050
27.766667,-0.000056
27.800000,-0.000050
27.833333,-0.000031
27.866667,-0.000003
27.900000,0.000024
27.933333,0.000038
27.966667,0.000030
28.000000,-0.000003
28.033333,-0.000056
28.066667,-0.000113
28.100000,-0.000156
28.133333,-0.000169
28.166667,-0.000145
28.200000,-0.000084
28.233333,-0.000002
28.266667,0.000081
28.300000,0.000147
28.333333,0.000182
28.366667,0.000182
28.400000,0.000156
28.433333,0.000114
28.466667,0.000073
28.500000,0.000042
28.533333,0.000025
28.566667,0.000020
28.600000,0.000018
28.633333,0.000010
28.666667,-0.000010
28.700000,-0.000040
28.733333,-0.000073
28.766667,-0.000099
28.800000,-0.000109
28.833333,-0.000097
28.866667,-0.000067
28.900000,-0.000026
28.933333,0.000012
28.966667,0.000036
29.000000,0.000040
29.033333,0.000023
29.066667,-0.000007
29.100000,-0.000039
29.133333,-0.000060
29.166667,-0.000063
29.200000,-0.000046
29.233333,-0.000014
29.266667,0.000023
29.300000,0.000053
29.333333,0.000067
29.366667,0.000063
29.400000,0.000046
29.433333,0.000024
29.466667,0.000007
29.500000,0.000001
29.533333,0.000007
29.566667,0.000020
29.600000,0.000031
29.633333,0.000031
29.666667,0.000014
29.700000,-0.000017
29.733333,-0.000054
29.766667,-0.000083
29.800000,-0.000093
29.833333,-0.000076
29.866667,-0.000034
29.900000,0.000023
29.933333,0.000078
29.966667,0.000115
30.000000,0.000125
30.033333,0.000107
30.066667,0.000067
30.100000,0.000019
30.133333,-0.000024
30.166667,-0.000054
30.200000,-0.000066
30.233333,-0.000062
30.266667,-0.000051
30.300000,-0.000042
30.333333,-0.000043
30.366667,-0.000053
30.400000,-0.000067
30.433333,-0.000076
30.466667,-0.000071
30.500000,-0.000048
30.533333,-0.000011
30.566667,0.000032
30.600000,0.000071
30.633333,0.000093
30.666667,0.000093
30.700000,0.000073
30.733333,0.000038
30.766667,0.000000
30.800000,-0.000028
30.833333,-0.000039
30.866667,-0.000029
30.900000,-0.000003
30.933333,0.000029
30.966667,0.000057
31.000000,0.000070
31.033333,0.000063
31.066667,0.000039
31.100000,0.000008
31.133333,-0.000020
31.166667,-0.000037
31.200000,-0.000037
31.233333,-0.000024
31.266667,-0.000003
31.300000,0.000016
31.333333,0.000023
31.366667,0.000016
31.400000,-0.000003
31.433333,-0.000026
31.466667,-0.000045
31.500000,-0.000053
31.533333,-0.000050
31.566667,-0.000039
31.600000,-0.000025
31.633333,-0.000018
31.666667,-0.000021
31.700000,-0.000033
31.733333,-0.000049
31.766667,-0.000058
31.800000,-0.000054
31.833333,-0.000032
31.866667,0.000006
31.900000,0.000050
31.933333,0.000090
31.966667,0.000115
32.000000,0.000116
32.033333,0.000097
32.066667,0.000063
32.100000,0.000028
32.133333,0.000000
32.166667,-0.000012
32.200000,-0.000009
32.233333,0.000004
32.266667,0.000017
32.300000,0.000021
32.333333,0.000010
32.366667,-0.000016
32.400000,-0.000049
32.433333,-0.000080
32.466667,-0.000097
32.500000,-0.000093
32.533333,-0.000070
32.566667,-0.000032
32.600000,0.000007
32.633333,0.000036
32.666667,0.000046
32.700000,0.000034
32.733333,0.000008
32.766667,-0.000020
32.800000,-0.000039
32.833333,-0.000040
32.866667,-0.000022
32.900000,0.000010
32.933333,0.000044
32.966667,0.000068
33.000000,0.000076
33.033333,0.000065
33.066667,0.000041
33.100000,0.000013
33.133333,-0.000008
33.166667,-0.000016
33.200000,-0.000012
33.233333,0.000001
33.266667,0.000012
33.300000,0.000015
33.333333,0.000003
33.366667,-0.000020
33.400000,-0.000047
33.433333,-0.000067
33.466667,-0.000069
33.500000,-0.000050
33.533333,-0.000013
33.566667,0.000031
33.600000,0.000068
33.633333,0.000087
33.666667,0.000080
33.700000,0.000050
33.733333,0.000006
33.766667,-0.000037
33.800000,-0.000066
33.833333,-0.000073
33.866667,-0.000057
33.900000,-0.000026
33.933333,0.000009
33.966667,0.000033
34.000000,0.000038
34.033333,0.000020
34.066667,-0.000011
34.100000,-0.000046
34.133333,-0.000071
34.166667,-0.000076
34.200000,-0.000059
34.233333,-0.000023
34.266667,0.000021
34.300000,0.000060
34.333333,0.000082
34.366667,0.000084
34.400000,0.000068
34.433333,0.000043
34.466667,0.000020
34.500000,0.000006
34.533333,0.000004
34.566667,0.000010
34.600000,0.000018
34.633333,0.000020
