# Time_Sec,Amplitude
0.000000,-0.000734
0.033333,0.001704
0.066667,0.003875
0.100000,0.005515
0.133333,0.006417
0.166667,0.006469
0.200000,0.005677
0.233333,0.004181
0.266667,0.002240
0.300000,0.000183
0.333333,-0.001660
0.366667,-0.003022
0.400000,-0.003746
0.433333,-0.003784
0.466667,-0.003184
0.500000,-0.002067
0.533333,-0.000618
0.566667,0.000928
0.600000,0.002311
0.633333,0.003288
0.666667,0.003674
0.700000,0.003396
0.733333,0.002510
0.766667,0.001191
0.800000,-0.000330
0.833333,-0.001828
0.866667,-0.003126
0.900000,-0.004108
0.933333,-0.004694
0.966667,-0.004815
1.000000,-0.004410
1.033333,-0.003454
1.066667,-0.002010
1.100000,-0.000253
1.133333,0.001546
1.166667,0.003079
1.200000,0.004081
1.233333,0.004401
1.266667,0.004042
1.300000,0.003149
1.333333,0.001954
1.366667,0.000706
1.400000,-0.000388
1.433333,-0.001203
1.466667,-0.001704
1.500000,-0.001934
1.533333,-0.001979
1.566667,-0.001927
1.600000,-0.001829
1.633333,-0.001674
1.666667,-0.001395
1.700000,-0.000901
1.733333,-0.000141
1.766667,0.000847
1.800000,0.001918
1.833333,0.002846
1.866667,0.003393
1.900000,0.003400
1.933333,0.002850
1.966667,0.001875
2.000000,0.000710
2.033333,-0.000368
2.066667,-0.001106
2.100000,-0.001343
2.133333,-0.001075
2.166667,-0.000466
2.200000,0.000211
2.233333,0.000680
2.266667,0.000764
2.300000,0.000435
2.333333,-0.000188
2.366667,-0.000913
2.400000,-0.001563
2.433333,-0.002038
2.466667,-0.002318
2.500000,-0.002431
2.533333,-0.002412
2.566667,-0.002276
2.600000,-0.001999
2.633333,-0.001524
2.666667,-0.000792
2.700000,0.000222
2.733333,0.001458
2.766667,0.002736
2.800000,0.003760
2.833333,0.004195
2.866667,0.003798
2.900000,0.002534
2.933333,0.000626
2.966667,-0.001486
3.000000,-0.003273
3.033333,-0.004281
3.066667,-0.004278
3.100000,-0.003307
3.133333,-0.001645
3.166667,0.000300
3.200000,0.002088
3.233333,0.003316
3.266667,0.003665
3.300000,0.002972
3.333333,0.001308
3.366667,-0.000967
3.400000,-0.003237
3.433333,-0.004792
3.466667,-0.005078
3.500000,-0.003916
3.533333,-0.001572
3.566667,0.001343
3.600000,0.004105
3.633333,0.006119
3.666667,0.007095
3.700000,0.007090
3.733333,0.006412
3.766667,0.005450
3.800000,0.004474
3.833333,0.003520
3.866667,0.002406
3.900000,0.000878
3.933333,-0.001192
3.966667,-0.003677
4.000000,-0.006194
4.033333,-0.008231
4.066667,-0.009331
4.100000,-0.009257
4.133333,-0.008072
4.166667,-0.006110
4.200000,-0.003868
4.233333,-0.001853
4.266667,-0.000439
4.300000,0.000246
4.333333,0.000341
4.366667,0.000189
4.400000,0.000197
4.433333,0.000677
4.466667,0.001730
4.500000,0.003221
4.533333,0.004832
4.566667,0.006178
4.600000,0.006929
4.633333,0.006913
4.666667,0.006143
4.700000,0.004782
4.733333,0.003068
4.766667,0.001242
4.800000,-0.000505
4.833333,-0.002045
4.866667,-0.003297
4.900000,-0.004192
4.933333,-0.004632
4.966667,-0.004496
5.000000,-0.003707
5.033333,-0.002336
5.066667,-0.000654
5.100000,0.000913
5.133333,0.001939
5.166667,0.002182
5.200000,0.001684
5.233333,0.000749
5.266667,-0.000208
5.300000,-0.000830
5.333333,-0.000944
5.366667,-0.000582
5.400000,0.000088
5.433333,0.000864
5.466667,0.001585
5.500000,0.002141
5.533333,0.002444
5.566667,0.002397
5.600000,0.001902
5.633333,0.000899
5.666667,-0.000580
5.700000,-0.002377
5.733333,-0.004230
5.766667,-0.005826
5.800000,-0.006869
5.833333,-0.007134
5.866667,-0.006508
5.900000,-0.005025
5.933333,-0.002888
5.966667,-0.000465
6.000000,0.001782
6.033333,0.003443
6.066667,0.004310
6.100000,0.004456
6.133333,0.004190
6.166667,0.003901
6.200000,0.003876
6.233333,0.004184
6.266667,0.004670
6.300000,0.005041
6.333333,0.005002
6.366667,0.004369
6.400000,0.003133
6.433333,0.001475
6.466667,-0.000276
6.500000,-0.001738
6.533333,-0.002595
6.566667,-0.002716
6.600000,-0.002209
6.633333,-0.001408
6.666667,-0.000765
6.700000,-0.000695
6.733333,-0.001416
6.766667,-0.002856
6.800000,-0.004660
6.833333,-0.006297
6.866667,-0.007237
6.900000,-0.007111
6.933333,-0.005821
6.966667,-0.003554
7.000000,-0.000724
7.033333,0.002156
7.066667,0.004607
7.100000,0.006288
7.133333,0.007030
7.166667,0.006832
7.200000,0.005824
7.233333,0.004218
7.266667,0.002266
7.300000,0.000219
7.333333,-0.001689
7.366667,-0.003250
7.400000,-0.004290
7.433333,-0.004691
7.466667,-0.004414
7.500000,-0.003516
7.533333,-0.002148
7.566667,-0.000530
7.600000,0.001082
7.633333,0.002455
7.666667,0.003431
7.700000,0.003960
7.733333,0.004100
7.766667,0.003975
7.800000,0.003709
7.833333,0.003361
7.866667,0.002899
7.900000,0.002214
7.933333,0.001201
7.966667,-0.000148
8.000000,-0.001688
8.033333,-0.003151
8.066667,-0.004244
8.100000,-0.004765
8.133333,-0.004669
8.166667,-0.004079
8.200000,-0.003231
8.233333,-0.002395
8.266667,-0.001786
8.300000,-0.001503
8.333333,-0.001497
8.366667,-0.001599
8.400000,-0.001575
8.433333,-0.001223
8.466667,-0.000460
8.500000,0.000646
8.533333,0.001898
8.566667,0.003043
8.600000,0.003870
8.633333,0.004277
8.666667,0.004300
8.700000,0.004075
8.733333,0.003776
8.766667,0.003522
8.800000,0.003325
8.833333,0.003069
8.866667,0.002566
8.900000,0.001645
8.933333,0.000242
8.966667,-0.001539
9.000000,-0.003434
9.033333,-0.005084
9.066667,-0.006138
9.100000,-0.006355
9.133333,-0.005674
9.166667,-0.004243
9.200000,-0.002387
9.233333,-0.000527
9.266667,0.000943
9.300000,0.001761
9.333333,0.001864
9.366667,0.001390
9.400000,0.000626
9.433333,-0.000083
9.466667,-0.000451
9.500000,-0.000344
9.533333,0.000188
9.566667,0.000941
9.600000,0.001640
9.633333,0.002028
9.666667,0.001968
9.700000,0.001506
9.733333,0.000866
9.766667,0.000364
9.800000,0.000266
9.833333,0.000655
9.866667,0.001383
9.900000,0.002132
9.933333,0.002557
9.966667,0.002415
10.000000,0.001659
10.033333,0.000436
10.066667,-0.000974
10.100000,-0.002254
10.133333,-0.003136
10.166667,-0.003469
10.200000,-0.003252
10.233333,-0.002623
10.266667,-0.001808
10.300000,-0.001044
10.333333,-0.000498
10.366667,-0.000217
10.400000,-0.000127
10.433333,-0.000084
10.466667,0.000051
10.500000,0.000353
10.533333,0.000804
10.566667,0.001312
10.600000,0.001740
10.633333,0.001964
10.666667,0.001912
10.700000,0.001583
10.733333,0.001039
10.766667,0.000373
10.800000,-0.000325
10.833333,-0.000993
10.866667,-0.001599
10.900000,-0.002126
10.933333,-0.002553
10.966667,-0.002841
11.000000,-0.002921
11.033333,-0.002711
11.066667,-0.002125
11.100000,-0.001119
11.133333,0.000269
11.166667,0.001889
11.200000,0.003479
11.233333,0.004732
11.266667,0.005385
11.300000,0.005308
11.333333,0.004538
11.366667,0.003250
11.400000,0.001700
11.433333,0.000154
11.466667,-0.001167
11.500000,-0.002110
11.533333,-0.002601
11.566667,-0.002641
11.600000,-0.002297
11.633333,-0.001689
11.666667,-0.000972
11.700000,-0.000305
11.733333,0.000172
11.766667,0.000370
11.800000,0.000259
11.833333,-0.000126
11.866667,-0.000695
11.900000,-0.001315
11.933333,-0.001847
11.966667,-0.002187
12.000000,-0.002308
12.033333,-0.002277
12.066667,-0.002224
12.100000,-0.002281
12.133333,-0.002501
12.166667,-0.002798
12.200000,-0.002949
12.233333,-0.002668
12.266667,-0.001729
12.300000,-0.000084
12.333333,0.002066
12.366667,0.004305
12.400000,0.006125
12.433333,0.007120
12.466667,0.007156
12.500000,0.006428
12.533333,0.005365
12.566667,0.004435
12.600000,0.003934
12.633333,0.003863
12.666667,0.003933
12.700000,0.003691
12.733333,0.002717
12.766667,0.000810
12.800000,-0.001909
12.833333,-0.005024
12.866667,-0.007954
12.900000,-0.010142
12.933333,-0.011203
12.966667,-0.011011
13.000000,-0.009699
13.033333,-0.007585
13.066667,-0.005070
13.100000,-0.002524
13.133333,-0.000214
13.166667,0.001714
13.200000,0.003223
13.233333,0.004351
13.266667,0.005186
13.300000,0.005817
13.333333,0.006284
13.366667,0.006534
13.400000,0.006435
13.433333,0.005834
13.466667,0.004646
13.500000,0.002941
13.533333,0.000967
13.566667,-0.000903
13.600000,-0.002309
13.633333,-0.003049
13.666667,-0.003161
13.700000,-0.002882
13.733333,-0.002517
13.766667,-0.002275
13.800000,-0.002158
13.833333,-0.001973
13.866667,-0.001453
13.900000,-0.000440
13.933333,0.000983
13.966667,0.002473
14.000000,0.003550
14.033333,0.003785
14.066667,0.002961
14.100000,0.001148
14.133333,-0.001305
14.166667,-0.003862
14.200000,-0.005925
14.233333,-0.006991
14.266667,-0.006791
14.300000,-0.005361
14.333333,-0.003023
14.366667,-0.000290
14.400000,0.002283
14.433333,0.004247
14.466667,0.005354
14.500000,0.005569
14.533333,0.005031
14.566667,0.003980
14.600000,0.002705
14.633333,0.001499
14.666667,0.000609
14.700000,0.000178
14.733333,0.000208
14.766667,0.000562
14.800000,0.001024
14.833333,0.001374
14.866667,0.001468
14.900000,0.001269
14.933333,0.000828
14.966667,0.000246
15.000000,-0.000378
15.033333,-0.000978
15.066667,-0.001528
15.100000,-0.002033
15.133333,-0.002503
15.166667,-0.002930
15.200000,-0.003280
15.233333,-0.003509
15.266667,-0.003589
15.300000,-0.003539
15.333333,-0.003427
15.366667,-0.003332
15.400000,-0.003291
15.433333,-0.003248
15.466667,-0.003063
15.500000,-0.002572
15.533333,-0.001679
15.566667,-0.000406
15.600000,0.001113
15.633333,0.002699
15.666667,0.004202
15.700000,0.005540
15.733333,0.006692
15.766667,0.007640
15.800000,0.008318
15.833333,0.008572
15.866667,0.008179
15.900000,0.006936
15.933333,0.004792
15.966667,0.001948
16.000000,-0.001134
16.033333,-0.003871
16.066667,-0.005769
16.100000,-0.006611
16.133333,-0.006502
16.166667,-0.005790
16.200000,-0.004888
16.233333,-0.004101
16.266667,-0.003533
16.300000,-0.003106
16.333333,-0.002660
16.366667,-0.002061
16.400000,-0.001261
16.433333,-0.000304
16.466667,0.000704
16.500000,0.001630
16.533333,0.002346
16.566667,0.002763
16.600000,0.002858
16.633333,0.002668
16.666667,0.002269
16.700000,0.001743
16.733333,0.001169
16.766667,0.000609
16.800000,0.000107
16.833333,-0.000325
16.866667,-0.000708
16.900000,-0.001077
16.933333,-0.001449
16.966667,-0.001805
17.000000,-0.002092
17.033333,-0.002251
17.066667,-0.002233
17.100000,-0.002015
17.133333,-0.001596
17.166667,-0.000999
17.200000,-0.000268
17.233333,0.000548
17.266667,0.001408
17.300000,0.002281
17.333333,0.003144
17.366667,0.003958
17.400000,0.004655
17.433333,0.005135
17.466667,0.005275
17.500000,0.004976
17.533333,0.004199
17.566667,0.002992
17.600000,0.001476
17.633333,-0.000203
17.666667,-0.001915
17.700000,-0.003568
17.733333,-0.005093
17.766667,-0.006412
17.800000,-0.007411
17.833333,-0.007945
17.866667,-0.007861
17.900000,-0.007050
17.933333,-0.005514
17.966667,-0.003408
18.000000,-0.001028
18.033333,0.001258
18.066667,0.003131
18.100000,0.004402
18.133333,0.005052
18.166667,0.005196
18.200000,0.005010
18.233333,0.004657
18.266667,0.004228
18.300000,0.003740
18.333333,0.003151
18.366667,0.002415
18.400000,0.001528
18.433333,0.000549
18.466667,-0.000408
18.500000,-0.001215
18.533333,-0.001776
18.566667,-0.002055
18.600000,-0.002075
18.633333,-0.001892
18.666667,-0.001567
18.700000,-0.001160
18.733333,-0.000733
18.766667,-0.000353
18.800000,-0.000086
18.833333,0.000009
18.866667,-0.000114
18.900000,-0.000475
18.933333,-0.001054
18.966667,-0.001766
19.000000,-0.002450
19.033333,-0.002892
19.066667,-0.002878
19.100000,-0.002275
19.133333,-0.001095
19.166667,0.000479
19.200000,0.002129
19.233333,0.003506
19.266667,0.004338
19.300000,0.004507
19.333333,0.004064
19.366667,0.003188
19.400000,0.002117
19.433333,0.001089
19.466667,0.000276
19.500000,-0.000261
19.533333,-0.000579
19.566667,-0.000823
19.600000,-0.001154
19.633333,-0.001666
19.666667,-0.002333
19.700000,-0.003011
19.733333,-0.003493
19.766667,-0.003596
19.800000,-0.003232
19.833333,-0.002449
19.866667,-0.001422
19.900000,-0.000399
19.933333,0.000390
19.966667,0.000814
20.000000,0.000894
20.033333,0.000793
20.066667,0.000747
20.100000,0.000981
20.133333,0.001623
20.166667,0.002653
20.200000,0.003889
20.233333,0.005013
20.266667,0.005638
20.300000,0.005417
20.333333,0.004157
20.366667,0.001918
20.400000,-0.000956
20.433333,-0.003897
20.466667,-0.006254
20.500000,-0.007477
20.533333,-0.007269
20.566667,-0.005686
20.600000,-0.003122
20.633333,-0.000196
20.666667,0.002436
20.700000,0.004285
20.733333,0.005146
20.766667,0.005099
20.800000,0.004393
20.833333,0.003287
20.866667,0.001927
20.900000,0.000327
20.933333,-0.001555
20.966667,-0.003694
21.000000,-0.005907
21.033333,-0.007826
21.066667,-0.008972
21.100000,-0.008904
21.133333,-0.007386
21.166667,-0.004516
21.200000,-0.000737
21.233333,0.003274
21.266667,0.006803
21.300000,0.009277
21.333333,0.010370
21.366667,0.010033
21.400000,0.008475
21.433333,0.006100
21.466667,0.003411
21.500000,0.000893
21.533333,-0.001080
21.566667,-0.002298
21.600000,-0.002724
21.633333,-0.002479
21.666667,-0.001823
21.700000,-0.001112
21.733333,-0.000724
21.766667,-0.000947
21.800000,-0.001871
21.833333,-0.003331
21.866667,-0.004929
21.900000,-0.006151
21.933333,-0.006525
21.966667,-0.005793
22.000000,-0.004006
22.033333,-0.001513
22.066667,0.001169
22.100000,0.003521
22.133333,0.005173
22.166667,0.005970
22.200000,0.005970
22.233333,0.005363
22.266667,0.004368
22.300000,0.003171
22.333333,0.001902
22.366667,0.000665
22.400000,-0.000433
22.433333,-0.001277
22.466667,-0.001781
22.500000,-0.001930
22.533333,-0.001805
22.566667,-0.001557
22.600000,-0.001351
22.633333,-0.001291
22.666667,-0.001379
22.700000,-0.001525
22.733333,-0.001600
22.766667,-0.001500
22.800000,-0.001195
22.833333,-0.000724
22.866667,-0.000170
22.900000,0.000375
22.933333,0.000829
22.966667,0.001123
23.000000,0.001212
23.033333,0.001086
23.066667,0.000785
23.100000,0.000403
23.133333,0.000061
23.166667,-0.000133
23.200000,-0.000127
23.233333,0.000058
23.266667,0.000338
23.300000,0.000584
23.333333,0.000645
23.366667,0.000395
23.400000,-0.000221
23.433333,-0.001135
23.466667,-0.002143
23.500000,-0.002951
23.533333,-0.003267
23.566667,-0.002911
23.600000,-0.001883
23.633333,-0.000355
23.666667,0.001405
23.700000,0.003117
23.733333,0.004560
23.766667,0.005573
23.800000,0.006038
23.833333,0.005860
23.866667,0.004972
23.900000,0.003376
23.933333,0.001206
23.966667,-0.001246
24.000000,-0.003552
24.033333,-0.005266
24.066667,-0.006070
24.100000,-0.005889
24.133333,-0.004910
24.166667,-0.003501
24.200000,-0.002068
24.233333,-0.000915
24.266667,-0.000162
24.300000,0.000248
24.333333,0.000471
24.366667,0.000662
24.400000,0.000905
24.433333,0.001196
24.466667,0.001480
24.500000,0.001698
24.533333,0.001818
24.566667,0.001845
24.600000,0.001807
24.633333,0.001743
24.666667,0.001687
24.700000,0.001658
24.733333,0.001645
24.766667,0.001593
24.800000,0.001410
24.833333,0.000991
24.866667,0.000272
24.900000,-0.000720
24.933333,-0.001849
24.966667,-0.002901
25.000000,-0.003657
25.033333,-0.003951
25.066667,-0.003720
25.100000,-0.003017
25.133333,-0.001993
25.166667,-0.000864
25.200000,0.000145
25.233333,0.000854
25.266667,0.001174
25.300000,0.001115
25.333333,0.000767
25.366667,0.000264
25.400000,-0.000260
25.433333,-0.000686
25.466667,-0.000923
25.500000,-0.000917
25.533333,-0.000647
25.566667,-0.000137
25.600000,0.000543
25.633333,0.001280
25.666667,0.001947
25.700000,0.002436
25.733333,0.002680
25.766667,0.002669
25.800000,0.002447
25.833333,0.002096
25.866667,0.001712
25.900000,0.001384
25.933333,0.001181
25.966667,0.001136
26.000000,0.001232
26.033333,0.001382
26.066667,0.001433
26.100000,0.001210
26.133333,0.000587
26.166667,-0.000437
26.200000,-0.001700
26.233333,-0.002911
26.266667,-0.003756
26.300000,-0.004031
26.333333,-0.003728
26.366667,-0.003037
26.400000,-0.002249
26.433333,-0.001628
26.466667,-0.001299
26.500000,-0.001231
26.533333,-0.001285
26.566667,-0.001301
26.600000,-0.001168
26.633333,-0.000851
26.666667,-0.000384
26.700000,0.000166
26.733333,0.000716
26.766667,0.001189
26.800000,0.001517
26.833333,0.001659
26.866667,0.001600
26.900000,0.001355
26.933333,0.000964
26.966667,0.000489
27.000000,0.000018
27.033333,-0.000339
27.066667,-0.000486
27.100000,-0.000374
27.133333,-0.000038
27.166667,0.000417
27.200000,0.000867
27.233333,0.001232
27.266667,0.001515
27.300000,0.001791
27.333333,0.002150
27.366667,0.002630
27.400000,0.003167
27.433333,0.003610
27.466667,0.003767
27.500000,0.003478
27.533333,0.002687
27.566667,0.001475
27.600000,0.000032
27.633333,-0.001413
27.666667,-0.002677
27.700000,-0.003664
27.733333,-0.004363
27.766667,-0.004815
27.800000,-0.005069
27.833333,-0.005146
27.866667,-0.005029
27.900000,-0.004671
27.933333,-0.004032
27.966667,-0.003115
28.000000,-0.001982
28.033333,-0.000740
28.066667,0.000502
28.100000,0.001663
28.133333,0.002700
28.166667,0.003588
28.200000,0.004275
28.233333,0.004632
28.266667,0.004460
28.300000,0.003573
28.333333,0.001939
28.366667,-0.000195
28.400000,-0.002311
28.433333,-0.003777
28.466667,-0.004103
28.500000,-0.003150
28.533333,-0.001179
28.566667,0.001266
28.600000,0.003554
28.633333,0.005175
28.666667,0.005862
28.700000,0.005612
28.733333,0.004630
28.766667,0.003226
28.800000,0.001709
28.833333,0.000315
28.866667,-0.000830
28.900000,-0.001706
28.933333,-0.002378
28.966667,-0.002935
29.000000,-0.003426
29.033333,-0.003801
29.066667,-0.003909
29.100000,-0.003567
29.133333,-0.002670
29.166667,-0.001285
29.200000,0.000301
29.233333,0.001649
29.266667,0.002305
29.300000,0.001967
29.333333,0.000609
29.366667,-0.001495
29.400000,-0.003844
29.433333,-0.005845
29.466667,-0.006965
29.500000,-0.006863
29.533333,-0.005474
29.566667,-0.003022
29.600000,0.000041
29.633333,0.003160
29.666667,0.005809
29.700000,0.007607
29.733333,0.008376
29.766667,0.008157
29.800000,0.007159
29.833333,0.005692
29.866667,0.004064
29.900000,0.002510
29.933333,0.001153
29.966667,0.000032
30.000000,-0.000863
30.033333,-0.001554
30.066667,-0.002070
30.100000,-0.002437
30.133333,-0.002689
30.166667,-0.002849
30.200000,-0.002923
30.233333,-0.002890
30.266667,-0.002708
30.300000,-0.002351
30.333333,-0.001848
30.366667,-0.001303
30.400000,-0.000861
30.433333,-0.000641
30.466667,-0.000655
30.500000,-0.000780
30.533333,-0.000813
30.566667,-0.000576
30.600000,-0.000011
30.633333,0.000782
30.666667,0.001581
30.700000,0.002130
30.733333,0.002239
30.766667,0.001855
30.800000,0.001086
30.833333,0.000178
30.866667,-0.000565
30.900000,-0.000876
30.933333,-0.000626
30.966667,0.000125
31.000000,0.001140
31.033333,0.002071
31.066667,0.002570
31.100000,0.002407
31.133333,0.001551
31.166667,0.000181
31.200000,-0.001364
31.233333,-0.002697
31.266667,-0.003508
31.300000,-0.003650
31.333333,-0.003167
31.366667,-0.002250
31.400000,-0.001161
31.433333,-0.000145
31.466667,0.000642
31.500000,0.001162
31.533333,0.001484
31.566667,0.001710
31.600000,0.001894
31.633333,0.002011
31.666667,0.001974
31.700000,0.001697
31.733333,0.001153
31.766667,0.000403
31.800000,-0.000415
31.833333,-0.001128
31.866667,-0.001576
31.900000,-0.001653
31.933333,-0.001331
31.966667,-0.000659
32.000000,0.000242
32.033333,0.001194
32.066667,0.001983
32.100000,0.002392
32.133333,0.002248
32.166667,0.001496
32.200000,0.000256
32.233333,-0.001173
32.266667,-0.002377
32.300000,-0.002971
32.333333,-0.002748
32.366667,-0.001788
32.400000,-0.000437
32.433333,0.000822
32.466667,0.001561
32.500000,0.001564
32.533333,0.000893
32.566667,-0.000164
32.600000,-0.001211
32.633333,-0.001884
32.666667,-0.001964
32.700000,-0.001428
32.733333,-0.000436
32.766667,0.000730
32.800000,0.001743
32.833333,0.002333
32.866667,0.002369
32.900000,0.001888
32.933333,0.001066
32.966667,0.000131
33.000000,-0.000718
33.033333,-0.001361
33.066667,-0.001763
33.100000,-0.001944
33.133333,-0.001942
33.166667,-0.001780
33.200000,-0.001472
33.233333,-0.001042
33.266667,-0.000553
33.300000,-0.000110
33.333333,0.000178
33.366667,0.000251
33.400000,0.000151
33.433333,0.000030
33.466667,0.000100
33.500000,0.000545
33.533333,0.001428
33.566667,0.002643
33.600000,0.003926
33.633333,0.004935
33.666667,0.005355
33.700000,0.004987
33.733333,0.003801
33.766667,0.001947
33.800000,-0.000263
33.833333,-0.002418
33.866667,-0.004097
33.900000,-0.004986
33.933333,-0.004975
33.966667,-0.004202
34.000000,-0.003011
34.033333,-0.001825
34.066667,-0.000994
34.100000,-0.000678
34.133333,-0.000816
34.166667,-0.001184
34.200000,-0.001492
34.233333,-0.001504
34.266667,-0.001115
34.300000,-0.000382
34.333333,0.000519
34.366667,0.001365
34.400000,0.001965
34.433333,0.002214
34.466667,0.002107
34.500000,0.001727
34.533333,0.001221
34.566667,0.000755
34.600000,0.000464
