Time_Sec,Amplitude
0.000000,0.076463
0.033333,0.520135
0.066667,0.780577
0.100000,0.738388
0.133333,0.377711
0.166667,-0.209312
0.200000,-0.854896
0.233333,-1.370927
0.266667,-1.606584
0.300000,-1.491086
0.333333,-1.052021
0.366667,-0.405607
0.400000,0.279092
0.433333,0.831718
0.466667,1.130295
0.500000,1.131503
0.533333,0.872949
0.566667,0.450654
0.600000,-0.016941
0.633333,-0.424635
0.666667,-0.704331
0.700000,-0.831952
0.733333,-0.819764
0.766667,-0.701109
0.800000,-0.514749
0.833333,-0.293795
0.866667,-0.061456
0.900000,0.167380
0.933333,0.382232
0.966667,0.573874
1.000000,0.732254
1.033333,0.844751
1.066667,0.895745
1.100000,0.869286
1.133333,0.754517
1.166667,0.551441
1.200000,0.275031
1.233333,-0.043682
1.266667,-0.361054
1.300000,-0.629183
1.333333,-0.806471
1.366667,-0.866331
1.400000,-0.801824
1.433333,-0.626362
1.466667,-0.371099
1.500000,-0.079525
1.533333,0.199804
1.566667,0.421369
1.600000,0.550857
1.633333,0.572023
1.666667,0.489719
1.700000,0.327477
1.733333,0.120931
1.766667,-0.089940
1.800000,-0.267845
1.833333,-0.384002
1.866667,-0.422384
1.900000,-0.381926
1.933333,-0.276727
1.966667,-0.133992
2.000000,0.011196
2.033333,0.124279
2.066667,0.180463
2.100000,0.171477
2.133333,0.107937
2.166667,0.016741
2.200000,-0.066466
2.233333,-0.108391
2.266667,-0.089096
2.300000,-0.008710
2.333333,0.112542
2.366667,0.240986
2.400000,0.340955
2.433333,0.387013
2.466667,0.371366
2.500000,0.302950
2.533333,0.199763
2.566667,0.079471
2.600000,-0.047135
2.633333,-0.177548
2.666667,-0.313402
2.700000,-0.452826
2.733333,-0.583849
2.766667,-0.683155
2.800000,-0.721183
2.833333,-0.671450
2.866667,-0.520819
2.900000,-0.277197
2.933333,0.028571
2.966667,0.347937
3.000000,0.625183
3.033333,0.810017
3.066667,0.869680
3.100000,0.798014
3.133333,0.617844
3.166667,0.374244
3.200000,0.120732
3.233333,-0.095908
3.266667,-0.246810
3.300000,-0.325184
3.333333,-0.342760
3.366667,-0.320405
3.400000,-0.277350
3.433333,-0.223357
3.466667,-0.155815
3.500000,-0.062099
3.533333,0.072744
3.566667,0.254577
3.600000,0.470032
3.633333,0.683653
3.666667,0.844655
3.700000,0.900690
3.733333,0.813346
3.766667,0.569806
3.800000,0.186628
3.833333,-0.294459
3.866667,-0.814864
3.900000,-1.308176
3.933333,-1.710344
3.966667,-1.971671
4.000000,-2.066828
4.033333,-1.996251
4.066667,-1.775841
4.100000,-1.419360
4.133333,-0.924200
4.166667,-0.272606
4.200000,0.545309
4.233333,1.493748
4.266667,2.460164
4.300000,3.257050
4.333333,3.669827
4.366667,3.537899
4.400000,2.831765
4.433333,1.684455
4.466667,0.357288
4.500000,-0.845130
4.533333,-1.672243
4.566667,-1.999348
4.600000,-1.852575
4.633333,-1.384083
4.666667,-0.809431
4.700000,-0.330754
4.733333,-0.074305
4.766667,-0.063847
4.800000,-0.234160
4.833333,-0.472050
4.866667,-0.664750
4.900000,-0.737625
4.933333,-0.670506
4.966667,-0.491632
5.000000,-0.256911
5.033333,-0.025718
5.066667,0.157958
5.100000,0.274731
5.133333,0.328825
5.166667,0.339357
5.200000,0.328933
5.233333,0.314593
5.266667,0.303497
5.300000,0.293275
5.333333,0.276192
5.366667,0.245402
5.400000,0.200050
5.433333,0.146528
5.466667,0.096116
5.500000,0.061129
5.533333,0.050973
5.566667,0.068536
5.600000,0.107861
5.633333,0.154183
5.666667,0.186271
5.700000,0.180657
5.733333,0.117939
5.766667,-0.009439
5.800000,-0.190821
5.833333,-0.395968
5.866667,-0.580031
5.900000,-0.693674
5.933333,-0.695944
5.966667,-0.566796
6.000000,-0.315563
6.033333,0.017538
6.066667,0.367643
6.100000,0.658606
6.133333,0.821912
6.166667,0.816871
6.200000,0.644350
6.233333,0.347337
6.266667,-0.001881
6.300000,-0.321939
6.333333,-0.542823
6.366667,-0.621373
6.400000,-0.548900
6.433333,-0.350312
6.466667,-0.076583
6.500000,0.207036
6.533333,0.435691
6.566667,0.560473
6.600000,0.560203
6.633333,0.444483
6.666667,0.247253
6.700000,0.014648
6.733333,-0.208052
6.766667,-0.386811
6.800000,-0.504141
6.833333,-0.558476
6.866667,-0.559259
6.900000,-0.520548
6.933333,-0.455275
6.966667,-0.371430
7.000000,-0.271266
7.033333,-0.153603
7.066667,-0.017508
7.100000,0.134706
7.133333,0.295660
7.166667,0.451989
7.200000,0.585062
7.233333,0.674476
7.266667,0.703678
7.300000,0.665340
7.333333,0.564258
7.366667,0.416673
7.400000,0.245881
7.433333,0.075502
7.466667,-0.076766
7.500000,-0.202503
7.533333,-0.302656
7.566667,-0.385149
7.600000,-0.460416
7.633333,-0.535396
7.666667,-0.607757
7.700000,-0.662640
7.733333,-0.673411
7.766667,-0.607110
7.800000,-0.434560
7.833333,-0.143245
7.866667,0.251457
7.900000,0.701723
7.933333,1.132174
7.966667,1.453754
8.000000,1.583685
8.033333,1.466444
8.066667,1.089622
8.100000,0.490348
8.133333,-0.248637
8.166667,-1.012964
8.200000,-1.680217
8.233333,-2.148883
8.266667,-2.362391
8.300000,-2.316881
8.333333,-2.048446
8.366667,-1.606358
8.400000,-1.026851
8.433333,-0.323501
8.466667,0.496978
8.500000,1.399609
8.533333,2.288509
8.566667,3.003200
8.600000,3.357677
8.633333,3.211262
8.666667,2.538136
8.700000,1.457964
8.733333,0.208646
8.766667,-0.927445
8.800000,-1.711269
8.833333,-2.015643
8.866667,-1.853979
8.900000,-1.363645
8.933333,-0.751694
8.966667,-0.222538
9.000000,0.086126
9.033333,0.136666
9.066667,-0.014070
9.100000,-0.251132
9.133333,-0.450745
9.166667,-0.523691
9.200000,-0.439568
9.233333,-0.227644
9.266667,0.041175
9.300000,0.282152
9.333333,0.425039
9.366667,0.435121
9.400000,0.321005
9.433333,0.127348
9.466667,-0.083214
9.500000,-0.250831
9.533333,-0.334751
9.566667,-0.321272
9.600000,-0.222410
9.633333,-0.067361
9.666667,0.108659
9.700000,0.273563
9.733333,0.403430
9.766667,0.483635
9.800000,0.507082
9.833333,0.471424
9.866667,0.378143
9.900000,0.234936
9.933333,0.059035
9.966667,-0.122757
10.000000,-0.278962
10.033333,-0.381272
10.066667,-0.412154
10.100000,-0.369660
10.133333,-0.267747
10.166667,-0.131854
10.200000,0.008438
10.233333,0.127021
10.266667,0.207109
10.300000,0.243753
10.333333,0.241847
10.366667,0.210456
10.400000,0.157127
10.433333,0.086029
10.466667,0.000397
10.500000,-0.093315
10.533333,-0.182482
10.566667,-0.248547
10.600000,-0.271557
10.633333,-0.237986
10.666667,-0.148130
10.700000,-0.018919
10.733333,0.119277
10.766667,0.230591
10.800000,0.283852
10.833333,0.261877
10.866667,0.166328
10.900000,0.016339
10.933333,-0.157378
10.966667,-0.319725
11.000000,-0.437869
11.033333,-0.487154
11.066667,-0.455695
11.100000,-0.346528
11.133333,-0.176868
11.166667,0.025214
11.200000,0.226329
11.233333,0.394446
11.266667,0.504550
11.300000,0.541763
11.333333,0.502874
11.366667,0.397631
11.400000,0.248781
11.433333,0.088475
11.466667,-0.049240
11.500000,-0.137539
11.533333,-0.164640
11.566667,-0.137681
11.600000,-0.080447
11.633333,-0.024920
11.666667,-0.000210
11.700000,-0.023726
11.733333,-0.097234
11.766667,-0.207565
11.800000,-0.330793
11.833333,-0.438358
11.866667,-0.502936
11.900000,-0.502268
11.933333,-0.421148
11.966667,-0.253054
12.000000,-0.002190
12.033333,0.314106
12.066667,0.663039
12.100000,0.995991
12.133333,1.253764
12.166667,1.379373
12.200000,1.334630
12.233333,1.112537
12.266667,0.739185
12.300000,0.264469
12.333333,-0.253731
12.366667,-0.764078
12.400000,-1.228103
12.433333,-1.617724
12.466667,-1.910487
12.500000,-2.089248
12.533333,-2.145785
12.566667,-2.081601
12.600000,-1.900571
12.633333,-1.595429
12.666667,-1.137563
12.700000,-0.482411
12.733333,0.402304
12.766667,1.491986
12.800000,2.666935
12.833333,3.709818
12.866667,4.356085
12.900000,4.386273
12.933333,3.720074
12.966667,2.463489
13.000000,0.882552
13.033333,-0.683387
13.066667,-1.927252
13.100000,-2.656189
13.133333,-2.826216
13.166667,-2.527666
13.200000,-1.935336
13.233333,-1.245477
13.266667,-0.621907
13.300000,-0.165586
13.333333,0.089972
13.366667,0.164654
13.400000,0.109450
13.433333,-0.015400
13.466667,-0.156303
13.500000,-0.274175
13.533333,-0.345349
13.566667,-0.358380
13.600000,-0.309585
13.633333,-0.199675
13.666667,-0.033257
13.700000,0.178597
13.733333,0.414870
13.766667,0.643420
13.800000,0.824283
13.833333,0.917859
13.866667,0.896473
13.900000,0.755257
13.933333,0.516702
13.966667,0.225577
14.000000,-0.063615
14.033333,-0.300811
14.066667,-0.451165
14.100000,-0.500336
14.133333,-0.454468
14.166667,-0.336336
14.200000,-0.179617
14.233333,-0.022331
14.266667,0.100587
14.300000,0.165027
14.333333,0.163241
14.366667,0.104593
14.400000,0.011441
14.433333,-0.087726
14.466667,-0.165835
14.500000,-0.203927
14.533333,-0.195191
14.566667,-0.144949
14.600000,-0.067253
14.633333,0.019905
14.666667,0.099262
14.700000,0.158016
14.733333,0.189550
14.766667,0.192667
14.800000,0.169564
14.833333,0.124333
14.866667,0.062360
14.900000,-0.010001
14.933333,-0.085593
14.966667,-0.156432
15.000000,-0.214307
15.033333,-0.252593
15.066667,-0.268263
15.100000,-0.262439
15.133333,-0.239263
15.166667,-0.203865
15.200000,-0.159879
15.233333,-0.106965
15.266667,-0.039988
15.300000,0.048552
15.333333,0.163351
15.366667,0.300775
15.400000,0.445278
15.433333,0.569615
15.466667,0.640541
15.500000,0.629552
15.533333,0.524187
15.566667,0.333970
15.600000,0.088510
15.633333,-0.170409
15.666667,-0.399444
15.700000,-0.563927
15.733333,-0.644641
15.766667,-0.639137
15.800000,-0.558132
15.833333,-0.419513
15.866667,-0.242534
15.900000,-0.044433
15.933333,0.158987
15.966667,0.349393
16.000000,0.502077
16.033333,0.586164
16.066667,0.570194
16.100000,0.431610
16.133333,0.167702
16.166667,-0.195204
16.200000,-0.598800
16.233333,-0.959531
16.266667,-1.184489
16.300000,-1.192440
16.333333,-0.935396
16.366667,-0.416419
16.400000,0.301159
16.433333,1.097724
16.466667,1.816680
16.500000,2.297037
16.533333,2.412916
16.566667,2.109086
16.600000,1.419604
16.633333,0.461411
16.666667,-0.594972
16.700000,-1.567563
16.733333,-2.305964
16.766667,-2.723952
16.800000,-2.811483
16.833333,-2.621126
16.866667,-2.233822
16.900000,-1.718441
16.933333,-1.103712
16.966667,-0.377700
17.000000,0.481153
17.033333,1.454301
17.066667,2.442468
17.100000,3.263568
17.133333,3.701529
17.166667,3.590139
17.200000,2.892716
17.233333,1.735542
17.266667,0.375519
17.300000,-0.882786
17.333333,-1.782333
17.366667,-2.183809
17.400000,-2.091110
17.433333,-1.631150
17.466667,-1.000494
17.500000,-0.399596
17.533333,0.022847
17.566667,0.199433
17.600000,0.143861
17.633333,-0.071447
17.666667,-0.347765
17.700000,-0.591280
17.733333,-0.735195
17.766667,-0.749189
17.800000,-0.637403
17.833333,-0.428957
17.866667,-0.165478
17.900000,0.110486
17.933333,0.363179
17.966667,0.566683
18.000000,0.705198
18.033333,0.772735
18.066667,0.772092
18.100000,0.711993
18.133333,0.603400
18.166667,0.457411
18.200000,0.285428
18.233333,0.100306
18.266667,-0.082408
18.300000,-0.243713
18.333333,-0.362370
18.366667,-0.419397
18.400000,-0.404638
18.433333,-0.322307
18.466667,-0.192897
18.500000,-0.050032
18.533333,0.068276
18.566667,0.132218
18.600000,0.131415
18.633333,0.078779
18.666667,0.004891
18.700000,-0.054259
18.733333,-0.071030
18.766667,-0.036393
18.800000,0.037170
18.833333,0.121100
18.866667,0.181630
18.900000,0.191378
18.933333,0.138342
18.966667,0.030547
19.000000,-0.105295
19.033333,-0.231853
19.066667,-0.313576
19.100000,-0.328561
19.133333,-0.275474
19.166667,-0.173332
19.200000,-0.054165
19.233333,0.048824
19.266667,0.112666
19.300000,0.130880
19.333333,0.112753
19.366667,0.076878
19.400000,0.041888
19.433333,0.018408
19.466667,0.006318
19.500000,-0.001318
19.533333,-0.010811
19.566667,-0.021956
19.600000,-0.026835
19.633333,-0.013415
19.666667,0.027708
19.700000,0.096373
19.733333,0.179537
19.766667,0.253885
19.800000,0.293079
19.833333,0.276187
19.866667,0.194664
19.900000,0.056476
19.933333,-0.114028
19.966667,-0.281280
20.000000,-0.407249
20.033333,-0.460891
20.066667,-0.425951
20.100000,-0.305625
20.133333,-0.122599
20.166667,0.086052
20.200000,0.277498
20.233333,0.412690
20.266667,0.464978
20.300000,0.426243
20.333333,0.308144
20.366667,0.137121
20.400000,-0.054604
20.433333,-0.237375
20.466667,-0.388542
20.500000,-0.492429
20.533333,-0.537033
20.566667,-0.510102
20.600000,-0.398443
20.633333,-0.192930
20.666667,0.102342
20.700000,0.461588
20.733333,0.834369
20.766667,1.150661
20.800000,1.333659
20.833333,1.317303
20.866667,1.063933
20.900000,0.578177
20.933333,-0.085805
20.966667,-0.827948
21.000000,-1.521322
21.033333,-2.044493
21.066667,-2.314616
21.100000,-2.305186
21.133333,-2.040269
21.166667,-1.570344
21.200000,-0.944746
21.233333,-0.197801
21.266667,0.641439
21.300000,1.520828
21.333333,2.338244
21.366667,2.940834
21.400000,3.162712
21.433333,2.889893
21.466667,2.120966
21.500000,0.989650
21.533333,-0.265376
21.566667,-1.369929
21.600000,-2.092675
21.633333,-2.304643
21.666667,-2.005433
21.700000,-1.313712
21.733333,-0.427987
21.766667,0.429513
21.800000,1.068704
21.833333,1.371976
21.866667,1.311562
21.900000,0.944212
21.933333,0.387159
21.966667,-0.218160
22.000000,-0.744487
22.033333,-1.107724
22.066667,-1.279012
22.100000,-1.278926
22.133333,-1.158219
22.166667,-0.972989
22.200000,-0.763449
22.233333,-0.543545
22.266667,-0.303776
22.300000,-0.024732
22.333333,0.304321
22.366667,0.669410
22.400000,1.026129
22.433333,1.308325
22.466667,1.448288
22.500000,1.400205
22.533333,1.158078
22.566667,0.761765
22.600000,0.288045
22.633333,-0.171097
22.666667,-0.534645
22.700000,-0.752791
22.733333,-0.814914
22.766667,-0.744974
22.800000,-0.587973
22.833333,-0.393262
22.866667,-0.201088
22.900000,-0.036599
22.933333,0.089008
22.966667,0.173684
23.000000,0.219453
23.033333,0.229148
23.066667,0.206072
23.100000,0.156043
23.133333,0.089047
23.166667,0.018006
23.200000,-0.044902
23.233333,-0.091826
23.266667,-0.121105
23.300000,-0.137133
23.333333,-0.148015
23.366667,-0.161218
23.400000,-0.179094
23.433333,-0.196765
23.466667,-0.203276
23.500000,-0.185354
23.533333,-0.132696
23.566667,-0.043192
23.600000,0.074462
23.633333,0.202412
23.666667,0.318421
23.700000,0.401264
23.733333,0.435342
23.766667,0.414074
23.800000,0.341028
23.833333,0.228058
23.866667,0.091606
23.900000,-0.050832
23.933333,-0.183446
23.966667,-0.294139
24.000000,-0.375157
24.033333,-0.421678
24.066667,-0.429681
24.100000,-0.395378
24.133333,-0.316991
24.166667,-0.197735
24.200000,-0.048437
24.233333,0.111777
24.266667,0.258305
24.300000,0.367382
24.333333,0.423124
24.366667,0.421733
24.400000,0.371366
24.433333,0.288324
24.466667,0.190666
24.500000,0.091002
24.533333,-0.008322
24.566667,-0.114643
24.600000,-0.238875
24.633333,-0.386378
24.666667,-0.548048
24.700000,-0.694949
24.733333,-0.779991
24.766667,-0.748487
24.800000,-0.555925
24.833333,-0.187996
24.866667,0.323864
24.900000,0.898888
24.933333,1.421059
24.966667,1.769880
25.000000,1.857280
25.033333,1.654979
25.066667,1.200612
25.100000,0.581087
25.133333,-0.098266
25.166667,-0.744157
25.200000,-1.292526
25.233333,-1.709269
25.266667,-1.981942
25.300000,-2.112041
25.333333,-2.110819
25.366667,-1.994798
25.400000,-1.777039
25.433333,-1.455708
25.466667,-1.007512
25.500000,-0.395722
25.533333,0.402351
25.566667,1.356007
25.600000,2.351223
25.633333,3.194948
25.666667,3.664980
25.700000,3.591384
25.733333,2.933040
25.766667,1.809564
25.800000,0.470113
25.833333,-0.786413
25.866667,-1.703561
25.900000,-2.136936
25.933333,-2.082022
25.966667,-1.657721
26.000000,-1.055817
26.033333,-0.475737
26.066667,-0.067231
26.100000,0.101878
26.133333,0.047777
26.166667,-0.151203
26.200000,-0.388768
26.233333,-0.565369
26.266667,-0.614253
26.300000,-0.514144
26.333333,-0.288517
26.366667,0.005798
26.400000,0.297066
26.433333,0.519466
26.466667,0.630296
26.500000,0.618510
26.533333,0.503220
26.566667,0.324372
26.600000,0.129274
26.633333,-0.040840
26.666667,-0.159970
26.700000,-0.219688
26.733333,-0.225380
26.766667,-0.189486
26.800000,-0.125024
26.833333,-0.041883
26.866667,0.052814
26.900000,0.151256
26.933333,0.241642
26.966667,0.307891
27.000000,0.332572
27.033333,0.301466
27.066667,0.208641
27.100000,0.061027
27.133333,-0.119547
27.166667,-0.298814
27.200000,-0.436744
27.233333,-0.496445
27.266667,-0.453333
27.300000,-0.302905
27.333333,-0.064972
27.366667,0.217333
27.400000,0.484217
27.433333,0.671234
27.466667,0.725852
27.500000,0.624903
27.533333,0.385424
27.566667,0.062039
27.600000,-0.269256
27.633333,-0.533977
27.666667,-0.679836
27.700000,-0.688596
27.733333,-0.576263
27.766667,-0.383270
27.800000,-0.160227
27.833333,0.044883
27.866667,0.195274
27.900000,0.269815
27.933333,0.264116
27.966667,0.189034
28.000000,0.067946
28.033333,-0.066434
28.066667,-0.176668
28.100000,-0.227960
28.133333,-0.197458
28.166667,-0.082607
28.200000,0.094556
28.233333,0.289803
28.266667,0.447540
28.300000,0.518372
28.333333,0.476875
28.366667,0.331340
28.400000,0.121262
28.433333,-0.095976
28.466667,-0.264103
28.500000,-0.346064
28.533333,-0.334830
28.566667,-0.253382
28.600000,-0.144957
28.633333,-0.057655
28.666667,-0.027976
28.700000,-0.067796
28.733333,-0.159286
28.766667,-0.260324
28.800000,-0.318791
28.833333,-0.290881
28.866667,-0.157743
28.900000,0.064860
28.933333,0.328180
28.966667,0.564138
29.000000,0.706438
29.033333,0.711611
29.066667,0.573606
29.100000,0.328079
29.133333,0.044383
29.166667,-0.193731
29.200000,-0.313137
29.233333,-0.274027
29.266667,-0.083631
29.300000,0.202513
29.333333,0.492307
29.366667,0.679491
29.400000,0.671748
29.433333,0.418615
29.466667,-0.067418
29.500000,-0.705422
29.533333,-1.364221
29.566667,-1.902368
29.600000,-2.213432
29.633333,-2.254169
29.666667,-2.042193
29.700000,-1.627027
29.733333,-1.052938
29.766667,-0.337071
29.800000,0.520828
29.833333,1.499360
29.866667,2.510759
29.900000,3.384184
29.933333,3.899627
29.966667,3.866548
30.000000,3.211375
30.033333,2.026864
30.066667,0.554545
30.100000,-0.891680
30.133333,-2.023614
30.166667,-2.657810
30.200000,-2.751368
30.233333,-2.390910
30.266667,-1.746754
30.300000,-1.012939
30.333333,-0.354579
30.366667,0.123251
30.400000,0.382424
30.433333,0.440880
30.466667,0.353074
30.500000,0.189174
30.533333,0.017618
30.566667,-0.107145
30.600000,-0.152102
30.633333,-0.109032
30.666667,0.006440
30.700000,0.160112
30.733333,0.307416
30.766667,0.402954
30.800000,0.410764
30.833333,0.314264
30.866667,0.122785
30.900000,-0.128460
30.933333,-0.385096
30.966667,-0.584677
31.000000,-0.669945
31.033333,-0.602590
31.066667,-0.374939
31.100000,-0.016374
31.133333,0.408068
31.166667,0.808548
31.200000,1.090788
31.233333,1.181981
31.266667,1.053052
31.300000,0.727767
31.333333,0.275613
31.366667,-0.207158
31.400000,-0.621179
31.433333,-0.886213
31.466667,-0.957469
31.500000,-0.833345
31.533333,-0.554213
31.566667,-0.192961
31.600000,0.161805
31.633333,0.427238
31.666667,0.546529
31.700000,0.501310
31.733333,0.312995
31.766667,0.034207
31.800000,-0.266297
31.833333,-0.520891
31.866667,-0.677602
31.900000,-0.708248
31.933333,-0.609834
31.966667,-0.401191
32.000000,-0.116964
32.033333,0.199300
32.066667,0.501241
32.100000,0.744464
32.133333,0.891556
32.166667,0.918504
32.200000,0.820423
32.233333,0.613077
32.266667,0.329335
32.300000,0.012450
32.333333,-0.292000
32.366667,-0.544229
32.400000,-0.716412
32.433333,-0.795087
32.466667,-0.779997
32.500000,-0.681186
32.533333,-0.515820
32.566667,-0.305640
32.600000,-0.075721
32.633333,0.145927
32.666667,0.329959
32.700000,0.450217
32.733333,0.490251
32.766667,0.448934
32.800000,0.342711
32.833333,0.203117
32.866667,0.069146
32.900000,-0.024063
32.933333,-0.055989
32.966667,-0.026353
33.000000,0.046166
33.033333,0.130815
33.066667,0.194741
33.100000,0.212798
33.133333,0.173508
33.166667,0.079282
33.200000,-0.057279
33.233333,-0.217394
33.266667,-0.378265
33.300000,-0.513605
33.333333,-0.593884
33.366667,-0.588281
33.400000,-0.470481
33.433333,-0.228433
33.466667,0.125322
33.500000,0.547937
33.533333,0.968723
33.566667,1.300482
33.600000,1.457882
33.633333,1.378544
33.666667,1.040672
33.700000,0.472216
33.733333,-0.250356
33.766667,-1.014543
33.800000,-1.695987
33.833333,-2.189804
33.866667,-2.436825
33.900000,-2.431175
33.933333,-2.204621
33.966667,-1.796363
34.000000,-1.226063
34.033333,-0.488278
34.066667,0.423424
34.100000,1.472146
34.133333,2.539865
34.166667,3.426850
34.200000,3.902971
34.233333,3.795572
34.266667,3.071945
34.300000,1.870794
34.333333,0.462866
34.366667,-0.840125
34.400000,-1.784966
34.433333,-2.245077
34.466667,-2.238315
34.500000,-1.896669
34.533333,-1.404909
34.566667,-0.933196
